Time_s,Raw_EMG,Envelope_EMG
0.0004,-68.0,58.0
0.0006,50.0,58.0
0.0007,113.0,60.0
0.0008,8.0,60.0
0.001,-94.0,60.0
0.0011,-67.0,60.0
0.0012,25.0,60.0
0.0014,75.0,62.0
0.0015,35.0,62.0
0.0016,-38.0,62.0
0.0018,-49.0,62.0
0.0019,-1.0,62.0
0.002,26.0,62.0
0.0021,18.0,62.0
0.0022,2.0,62.0
0.0024,-16.0,62.0
0.0026,-22.0,62.0
0.0027,14.0,62.0
0.0028,36.0,62.0
0.0031,-15.0,60.0
0.0033,-49.0,62.0
0.0034,10.0,62.0
0.0036,51.0,62.0
0.0038,1.0,62.0
0.0039,-37.0,62.0
0.004,-7.0,62.0
0.0042,19.0,62.0
0.0043,1.0,62.0
0.0044,-10.0,62.0
0.0045,9.0,62.0
0.0046,12.0,62.0
0.0048,-17.0,62.0
0.0049,-12.0,60.0
0.005,29.0,62.0
0.0051,7.0,60.0
0.0054,-46.0,60.0
0.0055,-9.0,60.0
0.0057,56.0,62.0
0.0058,16.0,62.0
0.0059,-50.0,62.0
0.0061,-14.0,62.0
0.0062,35.0,62.0
0.0064,4.0,62.0
0.0065,-20.0,62.0
0.0066,7.0,62.0
0.0067,3.0,62.0
0.0068,-17.0,62.0
0.007,19.0,62.0
0.0071,31.0,62.0
0.0072,-41.0,62.0
0.0074,-41.0,62.0
0.0075,52.0,62.0
0.0076,42.0,62.0
0.0078,-45.0,64.0
0.0079,-41.0,64.0
0.0081,17.0,64.0
0.0082,39.0,64.0
0.0084,22.0,64.0
0.0089,-25.0,62.0
0.0092,-48.0,62.0
0.0093,2.0,58.0
0.0095,42.0,58.0
0.0097,17.0,56.0
0.0099,-14.0,54.0
0.0102,-31.0,52.0
0.0103,-22.0,52.0
0.0104,32.0,50.0
0.0105,48.0,52.0
0.0107,-17.0,52.0
0.0108,-47.0,52.0
0.011,-2.0,52.0
0.0111,23.0,52.0
0.0112,7.0,50.0
0.0113,1.0,50.0
0.0114,3.0,50.0
0.0115,-2.0,48.0
0.0117,-11.0,48.0
0.0118,-4.0,48.0
0.0119,8.0,48.0
0.012,-5.0,48.0
0.0122,-14.0,48.0
0.0123,27.0,48.0
0.0124,34.0,48.0
0.0125,-31.0,48.0
0.0127,-50.0,48.0
0.0128,12.0,48.0
0.013,45.0,50.0
0.0131,10.0,50.0
0.0133,-25.0,50.0
0.0134,-18.0,50.0
0.0135,1.0,48.0
0.0136,4.0,48.0
0.0138,21.0,48.0
0.0139,29.0,48.0
0.0141,-38.0,48.0
0.0142,-64.0,50.0
0.0143,35.0,50.0
0.0145,73.0,52.0
0.0146,-14.0,52.0
0.0151,-44.0,52.0
0.0153,3.0,52.0
0.0154,1.0,52.0
0.0156,-12.0,52.0
0.0159,17.0,52.0
0.0161,20.0,52.0
0.0162,-4.0,50.0
0.0163,0.0,50.0
0.0164,-8.0,50.0
0.0166,-36.0,50.0
0.0167,-4.0,50.0
0.0169,52.0,50.0
0.017,30.0,50.0
0.0171,-35.0,50.0
0.0172,-36.0,52.0
0.0173,9.0,52.0
0.0174,19.0,52.0
0.0175,-2.0,50.0
0.0176,-2.0,50.0
0.0178,15.0,50.0
0.0179,5.0,50.0
0.0181,-28.0,50.0
0.0182,-27.0,50.0
0.0183,28.0,50.0
0.0185,54.0,50.0
0.0187,-15.0,50.0
0.0188,-76.0,50.0
0.0189,-12.0,50.0
0.019,77.0,52.0
0.0191,41.0,50.0
0.0192,-57.0,50.0
0.0194,-37.0,50.0
0.0195,36.0,50.0
0.0196,-8.0,48.0
0.0197,-18.0,48.0
0.0198,76.0,48.0
0.02,-7.0,48.0
0.0201,-145.0,50.0
0.0202,50.0,50.0
0.0203,207.0,52.0
0.0205,-87.0,54.0
0.0207,-252.0,56.0
0.0208,70.0,58.0
0.021,239.0,62.0
0.0212,-12.0,62.0
0.0214,-145.0,64.0
0.0216,-12.0,64.0
0.0217,23.0,64.0
0.0219,-34.0,64.0
0.022,59.0,64.0
0.0221,121.0,66.0
0.0223,-79.0,66.0
0.0224,-185.0,68.0
0.0225,61.0,68.0
0.0227,199.0,72.0
0.0228,-43.0,72.0
0.023,-180.0,76.0
0.0231,31.0,76.0
0.0232,146.0,78.0
0.0233,-14.0,78.0
0.0235,-105.0,80.0
0.0236,2.0,78.0
0.0237,62.0,80.0
0.0238,-9.0,80.0
0.024,-14.0,78.0
0.0241,50.0,80.0
0.0242,-40.0,80.0
0.0243,-118.0,80.0
0.0244,84.0,82.0
0.0246,182.0,84.0
0.0247,-97.0,86.0
0.0248,-211.0,88.0
0.0249,74.0,90.0
0.0251,195.0,92.0
0.0252,-25.0,92.0
0.0253,-138.0,94.0
0.0255,-19.0,94.0
0.0256,56.0,94.0
0.0258,28.0,94.0
0.026,39.0,94.0
0.0262,27.0,94.0
0.0264,-125.0,96.0
0.0265,-144.0,96.0
0.0268,166.0,98.0
0.0272,269.0,102.0
0.0275,-144.0,104.0
0.0277,-331.0,110.0
0.028,71.0,110.0
0.0282,285.0,114.0
0.0283,8.0,114.0
0.0285,-150.0,116.0
0.0286,-34.0,116.0
0.0287,3.0,116.0
0.0289,-17.0,116.0
0.029,101.0,116.0
0.0292,126.0,118.0
0.0293,-148.0,120.0
0.0295,-243.0,124.0
0.0296,144.0,124.0
0.0298,307.0,130.0
0.0299,-117.0,130.0
0.0301,-295.0,136.0
0.0302,88.0,136.0
0.0304,225.0,140.0
0.0305,-61.0,142.0
0.0307,-132.0,144.0
0.0308,45.0,144.0
0.031,40.0,144.0
0.0311,-61.0,146.0
0.0312,51.0,146.0
0.0314,134.0,148.0
0.0315,-133.0,148.0
0.0317,-249.0,152.0
0.0318,164.0,154.0
0.032,335.0,160.0
0.0321,-134.0,160.0
0.0323,-336.0,166.0
0.0324,76.0,166.0
0.0325,256.0,170.0
0.0327,-28.0,170.0
0.0332,-142.0,172.0
0.0335,20.0,172.0
0.0339,39.0,172.0
0.0341,-61.0,174.0
0.0343,48.0,172.0
0.0345,150.0,174.0
0.0347,-115.0,176.0
0.0349,-262.0,180.0
0.035,126.0,180.0
0.0352,323.0,186.0
0.0353,-86.0,186.0
0.0355,-288.0,192.0
0.0356,44.0,192.0
0.0357,193.0,194.0
0.0359,-29.0,194.0
0.036,-100.0,196.0
0.0362,33.0,196.0
0.0363,33.0,196.0
0.0364,-50.0,198.0
0.0366,43.0,198.0
0.0367,112.0,198.0
0.0369,-127.0,200.0
0.037,-222.0,202.0
0.0372,144.0,204.0
0.0373,293.0,210.0
0.0375,-81.0,210.0
0.0376,-250.0,214.0
0.0378,19.0,214.0
0.0379,135.0,216.0
0.0381,-10.0,216.0
0.0382,-39.0,216.0
0.0383,28.0,216.0
0.0385,0.0,216.0
0.0386,-31.0,216.0
0.0387,11.0,214.0
0.0389,22.0,214.0
0.0391,-22.0,214.0
0.0393,-23.0,214.0
0.0397,27.0,214.0
0.0399,32.0,214.0
0.0401,-11.0,212.0
0.0403,-29.0,214.0
0.0404,-10.0,212.0
0.0405,7.0,212.0
0.0407,14.0,212.0
0.0408,11.0,210.0
0.0409,2.0,210.0
0.041,-8.0,206.0
0.0412,-18.0,204.0
0.0413,-3.0,202.0
0.0415,21.0,200.0
0.0416,4.0,196.0
0.0418,-22.0,196.0
0.0419,1.0,194.0
0.042,21.0,194.0
0.0421,0.0,194.0
0.0422,-9.0,194.0
0.0424,-3.0,194.0
0.0425,-9.0,192.0
0.0426,-5.0,190.0
0.0428,17.0,188.0
0.0429,15.0,186.0
0.0431,-8.0,184.0
0.0432,-11.0,184.0
0.0433,0.0,180.0
0.0434,0.0,180.0
0.0436,-6.0,178.0
0.0437,0.0,178.0
0.0438,13.0,176.0
0.0439,9.0,176.0
0.0441,-10.0,176.0
0.0442,-16.0,176.0
0.0443,4.0,176.0
0.0445,13.0,174.0
0.0446,0.0,174.0
0.0447,-6.0,172.0
0.0449,0.0,172.0
0.045,0.0,168.0
0.0452,0.0,166.0
0.0453,6.0,164.0
0.0455,1.0,162.0
0.0457,-13.0,160.0
0.0458,-7.0,160.0
0.046,15.0,158.0
0.0463,18.0,158.0
0.0465,-4.0,156.0
0.0467,-25.0,156.0
0.0468,-21.0,156.0
0.047,13.0,156.0
0.0474,43.0,154.0
0.0476,17.0,152.0
0.0477,-38.0,150.0
0.0479,-46.0,148.0
0.048,9.0,146.0
0.0482,51.0,140.0
0.0483,23.0,140.0
0.0485,-33.0,136.0
0.0486,-35.0,136.0
0.0487,9.0,134.0
0.0488,23.0,134.0
0.0489,4.0,134.0
0.049,0.0,134.0
0.0492,-5.0,132.0
0.0493,-18.0,130.0
0.0494,-3.0,128.0
0.0496,30.0,126.0
0.0497,19.0,124.0
0.0498,-32.0,118.0
0.05,-34.0,118.0
0.0501,24.0,114.0
0.0502,42.0,112.0
0.0503,-8.0,110.0
0.0505,-40.0,108.0
0.0506,-7.0,106.0
0.0507,30.0,106.0
0.0509,16.0,106.0
0.0512,-19.0,106.0
0.0514,-16.0,106.0
0.0516,12.0,104.0
0.0518,9.0,102.0
0.052,-12.0,98.0
0.0521,-1.0,96.0
0.0523,12.0,90.0
0.0524,-1.0,88.0
0.0525,-4.0,82.0
0.0526,5.0,82.0
0.0527,-9.0,78.0
0.0529,-16.0,78.0
0.0531,16.0,76.0
0.0532,29.0,76.0
0.0533,-9.0,76.0
0.0535,-32.0,74.0
0.0536,-2.0,74.0
0.0537,26.0,72.0
0.0538,8.0,70.0
0.0539,-20.0,66.0
0.054,-9.0,64.0
0.0541,15.0,60.0
0.0542,11.0,58.0
0.0544,-4.0,54.0
0.0545,-8.0,54.0
0.0546,-12.0,52.0
0.0547,-2.0,50.0
0.0548,18.0,50.0
0.055,13.0,50.0
0.0553,-9.0,48.0
0.0556,-13.0,48.0
0.0558,-6.0,48.0
0.056,0.0,46.0
0.0561,12.0,44.0
0.0562,17.0,40.0
0.0563,-5.0,38.0
0.0564,-25.0,34.0
0.0566,-8.0,34.0
0.0567,25.0,30.0
0.0569,18.0,30.0
0.0571,-25.0,28.0
0.0573,-22.0,28.0
0.0574,24.0,28.0
0.0575,23.0,28.0
0.0577,-17.0,28.0
0.0579,-14.0,28.0
0.058,9.0,28.0
0.0582,0.0,28.0
0.0585,-10.0,28.0
0.0586,11.0,28.0
0.0587,19.0,28.0
0.0589,-13.0,26.0
0.059,-28.0,26.0
0.0591,9.0,26.0
0.0592,33.0,28.0
0.0593,-3.0,26.0
0.0594,-31.0,28.0
0.0596,-5.0,28.0
0.0597,20.0,28.0
0.0598,8.0,28.0
0.0599,-7.0,28.0
0.06,-1.0,28.0
0.0601,2.0,26.0
0.0603,-10.0,28.0
0.0604,0.0,26.0
0.0605,18.0,26.0
0.0606,-13.0,26.0
0.0607,-22.0,28.0
0.0608,33.0,28.0
0.0609,29.0,28.0
0.0611,-47.0,28.0
0.0612,-38.0,30.0
0.0613,42.0,30.0
0.0614,40.0,30.0
0.0616,-20.0,30.0
0.0617,-28.0,30.0
0.0618,0.0,30.0
0.0619,7.0,30.0
0.062,5.0,30.0
0.0631,5.0,30.0
0.0683,0.0,30.0
0.0734,-4.0,30.0
0.0781,-3.0,30.0
0.0832,-3.0,30.0
0.0882,-3.0,30.0
0.0935,0.0,30.0
0.099,11.0,30.0
0.1031,13.0,30.0
0.1082,-5.0,30.0
0.1132,-18.0,30.0
0.1187,-5.0,30.0
0.1231,3.0,30.0
0.1283,0.0,30.0
0.1333,16.0,30.0
0.1381,25.0,30.0
0.1433,-17.0,30.0
0.1485,-51.0,32.0
0.1532,-5.0,32.0
0.1582,52.0,32.0
0.1631,28.0,32.0
0.1681,-29.0,32.0
0.1733,-28.0,32.0
0.1784,7.0,32.0
0.1832,11.0,32.0
0.1883,-2.0,30.0
0.1932,0.0,30.0
0.1988,4.0,30.0
0.2031,-5.0,30.0
0.2082,-7.0,28.0
0.2131,14.0,28.0
0.2183,18.0,28.0
0.2233,-26.0,28.0
0.2283,-41.0,30.0
0.2335,24.0,30.0
0.2382,56.0,30.0
0.2433,-3.0,30.0
0.2483,-44.0,30.0
0.2535,-13.0,30.0
0.2583,10.0,30.0
0.2633,9.0,30.0
0.2682,15.0,30.0
0.2732,6.0,30.0
0.2782,-18.0,30.0
0.2832,-16.0,30.0
0.2881,12.0,28.0
0.2932,19.0,30.0
0.2981,-14.0,28.0
0.3033,-24.0,28.0
0.3081,19.0,28.0
0.3131,32.0,30.0
0.3184,-16.0,30.0
0.3234,-33.0,30.0
0.3283,4.0,30.0
0.3333,21.0,30.0
0.3386,3.0,30.0
0.3432,-3.0,30.0
0.3482,0.0,30.0
0.3532,-7.0,30.0
0.3582,-13.0,30.0
0.3632,7.0,30.0
0.3681,23.0,30.0
0.3733,-6.0,30.0
0.3784,-26.0,30.0
0.3833,7.0,30.0
0.3883,24.0,30.0
0.3931,-9.0,30.0
0.3987,-18.0,30.0
0.4032,10.0,30.0
0.4082,8.0,30.0
0.4133,-14.0,30.0
0.4181,0.0,30.0
0.4232,19.0,30.0
0.4285,0.0,30.0
0.4333,-21.0,30.0
0.4383,0.0,30.0
0.4433,18.0,30.0
0.4481,-7.0,30.0
0.4532,-20.0,30.0
0.4582,16.0,30.0
0.4632,27.0,30.0
0.4682,-15.0,30.0
0.4733,-29.0,30.0
0.4781,4.0,30.0
0.4832,20.0,30.0
0.4883,3.0,30.0
0.4942,-4.0,30.0
0.4984,-1.0,30.0
0.5032,-8.0,30.0
0.5081,-6.0,30.0
0.5132,19.0,30.0
0.5183,20.0,28.0
0.5234,-28.0,30.0
0.5284,-39.0,30.0
0.5332,23.0,30.0
0.5382,51.0,30.0
0.5433,-2.0,30.0
0.5483,-46.0,30.0
0.5534,-17.0,30.0
0.5584,25.0,30.0
0.5632,19.0,32.0
0.5682,-6.0,30.0
0.5733,-4.0,30.0
0.5783,0.0,30.0
0.5833,-12.0,30.0
0.5882,0.0,30.0
0.5932,24.0,30.0
0.5982,-5.0,30.0
0.6035,-34.0,30.0
0.6081,10.0,30.0
0.6132,36.0,30.0
0.6182,-8.0,30.0
0.6233,-21.0,32.0
0.6283,9.0,32.0
0.6333,2.0,30.0
0.6383,-21.0,32.0
0.6434,1.0,30.0
0.6485,30.0,30.0
0.6532,7.0,30.0
0.6585,-24.0,30.0
0.6633,-9.0,30.0
0.6684,13.0,30.0
0.6732,-6.0,28.0
0.6781,-12.0,28.0
0.6832,26.0,28.0
0.6882,22.0,28.0
0.6935,-34.0,30.0
0.6983,-32.0,30.0
0.7034,28.0,30.0
0.7083,34.0,30.0
0.7131,-15.0,30.0
0.7184,-26.0,32.0
0.7232,5.0,32.0
0.7283,11.0,32.0
0.7332,-5.0,32.0
0.7381,3.0,32.0
0.7433,12.0,32.0
0.7482,-14.0,32.0
0.7532,-26.0,32.0
0.7582,14.0,32.0
0.7632,37.0,32.0
0.7682,-4.0,32.0
0.7732,-36.0,32.0
0.7784,-3.0,32.0
0.7833,24.0,32.0
0.7882,0.0,32.0
0.7931,-10.0,32.0
0.7981,11.0,30.0
0.8031,0.0,30.0
0.8083,-28.0,30.0
0.8131,7.0,30.0
0.8187,41.0,30.0
0.8231,-8.0,30.0
0.8283,-47.0,32.0
0.8332,6.0,32.0
0.8383,40.0,32.0
0.8433,-3.0,32.0
0.8482,-25.0,32.0
0.8531,4.0,32.0
0.8614,11.0,32.0
0.8631,-7.0,32.0
0.8682,0.0,30.0
0.8732,15.0,30.0
0.8781,-9.0,30.0
0.8831,-32.0,30.0
0.8881,15.0,30.0
0.8933,51.0,30.0
0.8983,-15.0,30.0
0.9032,-58.0,32.0
0.9086,8.0,32.0
0.9131,45.0,32.0
0.9181,0.0,32.0
0.9232,-16.0,32.0
0.9281,-3.0,32.0
0.9332,-11.0,32.0
0.9381,-3.0,32.0
0.9431,25.0,32.0
0.9483,15.0,32.0
0.9534,-23.0,32.0
0.9583,-26.0,32.0
0.9631,8.0,30.0
0.9681,33.0,32.0
0.9732,6.0,32.0
0.9784,-29.0,32.0
0.9833,-12.0,32.0
0.9882,19.0,32.0
0.9931,3.0,32.0
0.9982,-11.0,32.0
1.0031,14.0,32.0
1.0083,14.0,32.0
1.0132,-27.0,32.0
1.0181,-23.0,32.0
1.0239,33.0,32.0
1.0281,31.0,32.0
1.0332,-33.0,34.0
1.0383,-32.0,34.0
1.0432,31.0,34.0
1.0482,27.0,34.0
1.0531,-27.0,34.0
1.0582,-15.0,34.0
1.0634,28.0,34.0
1.0683,2.0,34.0
1.0732,-36.0,34.0
1.0782,-1.0,34.0
1.0831,36.0,34.0
1.0882,10.0,36.0
1.0934,-16.0,34.0
1.0983,-9.0,34.0
1.1032,-13.0,34.0
1.1081,-12.0,34.0
1.1138,26.0,34.0
1.1182,38.0,36.0
1.1232,-16.0,36.0
1.1283,-43.0,36.0
1.1333,1.0,36.0
1.1383,27.0,36.0
1.1433,-2.0,36.0
1.1483,-11.0,36.0
1.1532,14.0,36.0
1.1582,7.0,36.0
1.1632,-23.0,36.0
1.1682,-4.0,36.0
1.1732,27.0,36.0
1.1787,-10.0,34.0
1.1833,-37.0,36.0
1.1882,27.0,34.0
1.1932,55.0,36.0
1.1983,-30.0,36.0
1.2033,-65.0,36.0
1.2086,16.0,36.0
1.2132,54.0,38.0
1.2182,0.0,38.0
1.2233,-25.0,38.0
1.2283,-7.0,38.0
1.2333,-4.0,38.0
1.2383,-1.0,38.0
1.2432,26.0,36.0
1.2482,21.0,38.0
1.2532,-30.0,36.0
1.2583,-40.0,38.0
1.2634,21.0,38.0
1.2682,44.0,38.0
1.2732,-11.0,38.0
1.2782,-37.0,38.0
1.2831,7.0,38.0
1.2883,29.0,38.0
1.2932,-2.0,38.0
1.2983,-21.0,38.0
1.3032,-4.0,38.0
1.3081,5.0,38.0
1.3132,4.0,38.0
1.3187,21.0,38.0
1.3233,11.0,38.0
1.3283,-45.0,38.0
1.3332,-36.0,38.0
1.3382,49.0,38.0
1.3432,50.0,40.0
1.3483,-37.0,40.0
1.3533,-47.0,40.0
1.3583,23.0,40.0
1.3631,36.0,40.0
1.3681,-11.0,40.0
1.3734,-26.0,40.0
1.3781,0.0,40.0
1.3833,13.0,40.0
1.3882,7.0,40.0
1.3931,8.0,40.0
1.3981,1.0,40.0
1.4032,-31.0,40.0
1.4083,-28.0,40.0
1.4133,35.0,40.0
1.4182,52.0,40.0
1.4231,-18.0,40.0
1.4282,-55.0,42.0
1.434,-5.0,42.0
1.4383,38.0,42.0
1.4434,15.0,42.0
1.4482,-14.0,42.0
1.4531,-8.0,42.0
1.4583,-6.0,42.0
1.4632,-10.0,42.0
1.4683,26.0,42.0
1.4732,40.0,42.0
1.4782,-43.0,42.0
1.4832,-80.0,42.0
1.4883,43.0,44.0
1.4932,111.0,44.0
1.4986,-24.0,44.0
1.5033,-119.0,46.0
1.5081,1.0,46.0
1.5131,90.0,48.0
1.5188,-2.0,48.0
1.5231,5.0,48.0
1.5281,86.0,48.0
1.5331,-127.0,50.0
1.5382,-245.0,54.0
1.5433,148.0,54.0
1.5482,339.0,60.0
1.5532,-50.0,60.0
1.5582,-256.0,64.0
1.5632,-30.0,64.0
1.5682,73.0,66.0
1.5733,14.0,66.0
1.5787,34.0,66.0
1.5832,15.0,66.0
1.5882,16.0,66.0
1.5932,58.0,66.0
1.5983,-147.0,68.0
1.6033,-198.0,72.0
1.6084,223.0,74.0
1.6133,248.0,78.0
1.6182,-224.0,80.0
1.6233,-161.0,84.0
1.6285,206.0,86.0
1.6337,33.0,86.0
1.6385,-181.0,90.0
1.6432,51.0,90.0
1.6482,126.0,92.0
1.6533,-83.0,92.0
1.6583,-46.0,92.0
1.6633,83.0,94.0
1.6684,-21.0,94.0
1.6732,-64.0,94.0
1.6783,51.0,94.0
1.6833,22.0,94.0
1.6884,-67.0,94.0
1.6933,35.0,94.0
1.699,103.0,96.0
1.7035,-70.0,96.0
1.7083,-148.0,100.0
1.7133,48.0,100.0
1.7184,151.0,102.0
1.7232,4.0,102.0
1.7282,-94.0,102.0
1.7336,-35.0,102.0
1.7385,19.0,102.0
1.7435,23.0,104.0
1.7485,26.0,104.0
1.7532,5.0,102.0
1.7583,-32.0,102.0
1.7633,-26.0,104.0
1.7682,25.0,102.0
1.7733,37.0,104.0
1.7785,-20.0,104.0
1.7832,-49.0,104.0
1.7882,13.0,104.0
1.7932,60.0,104.0
1.7983,1.0,104.0
1.8035,-58.0,106.0
1.8082,-19.0,106.0
1.8132,40.0,106.0
1.8182,28.0,106.0
1.8233,-12.0,106.0
1.8283,-18.0,106.0
1.8336,-9.0,104.0
1.8382,-6.0,104.0
1.8435,16.0,104.0
1.8484,28.0,104.0
1.8534,-9.0,102.0
1.8583,-37.0,104.0
1.8634,1.0,104.0
1.8682,31.0,104.0
1.8732,0.0,104.0
1.8783,-17.0,104.0
1.8832,1.0,104.0
1.8882,3.0,104.0
1.8935,-5.0,102.0
1.8982,8.0,102.0
1.9032,9.0,102.0
1.9083,-15.0,102.0
1.9133,-13.0,102.0
1.9183,19.0,102.0
1.9236,21.0,102.0
1.9283,-21.0,102.0
1.9332,-30.0,102.0
1.9383,13.0,102.0
1.9433,30.0,102.0
1.9483,0.0,102.0
1.9532,-16.0,102.0
1.9583,-3.0,102.0
1.9632,2.0,102.0
1.9682,-5.0,102.0
1.9735,2.0,100.0
1.9782,15.0,100.0
1.9833,-1.0,100.0
1.9883,-20.0,100.0
1.9932,10.0,98.0
1.9983,30.0,98.0
2.0034,-25.0,98.0
2.0082,-50.0,100.0
2.0132,22.0,98.0
2.0183,64.0,100.0
2.0233,5.0,100.0
2.0283,-51.0,100.0
2.0334,-31.0,100.0
2.0383,17.0,102.0
2.0439,24.0,102.0
2.0482,13.0,100.0
2.0533,13.0,100.0
2.0589,-24.0,100.0
2.0633,-53.0,100.0
2.0682,17.0,100.0
2.0732,74.0,102.0
2.0782,-9.0,100.0
2.0832,-78.0,102.0
2.0881,0.0,102.0
2.0933,66.0,102.0
2.0982,10.0,102.0
2.1032,-40.0,102.0
2.1082,-14.0,102.0
2.1131,6.0,102.0
2.1181,2.0,102.0
2.1234,24.0,100.0
2.1281,25.0,100.0
2.1332,-42.0,100.0
2.1382,-61.0,100.0
2.1431,45.0,98.0
2.1487,90.0,100.0
2.1531,-36.0,100.0
2.1582,-100.0,100.0
2.1632,21.0,100.0
2.1682,88.0,100.0
2.1732,-3.0,100.0
2.1782,-61.0,96.0
2.1832,-6.0,94.0
2.1881,27.0,90.0
2.1931,-5.0,88.0
2.1982,32.0,84.0
2.2032,74.0,86.0
2.2082,-95.0,86.0
2.2132,-192.0,88.0
2.2181,79.0,90.0
2.2232,250.0,94.0
2.2282,14.0,94.0
2.2332,-159.0,94.0
2.2381,-68.0,94.0
2.2432,-12.0,90.0
2.2481,12.0,88.0
2.2532,94.0,84.0
2.2582,54.0,82.0
2.2632,-1.0,80.0
2.2681,5.0,76.0
2.2732,-169.0,78.0
2.2782,-163.0,78.0
2.2831,251.0,82.0
2.2882,239.0,84.0
2.2933,-217.0,86.0
2.2982,-151.0,86.0
2.3032,156.0,88.0
2.3082,-3.0,88.0
2.3132,-120.0,88.0
2.3182,108.0,90.0
2.3232,89.0,90.0
2.3282,-129.0,92.0
2.3332,-35.0,92.0
2.3382,94.0,92.0
2.3433,-36.0,90.0
2.3488,-32.0,90.0
2.3532,118.0,90.0
2.3582,-27.0,88.0
2.3634,-191.0,92.0
2.3681,38.0,90.0
2.3732,211.0,94.0
2.3782,1.0,92.0
2.3832,-157.0,94.0
2.3882,-33.0,94.0
2.3931,76.0,96.0
2.3982,28.0,96.0
2.4032,-25.0,96.0
2.4082,-4.0,96.0
2.4132,11.0,96.0
2.4182,-11.0,96.0
2.4231,-1.0,94.0
2.4282,27.0,94.0
2.4331,-21.0,94.0
2.4382,-57.0,94.0
2.4432,38.0,94.0
2.4481,88.0,96.0
2.4532,-30.0,96.0
2.4582,-94.0,96.0
2.4632,7.0,96.0
2.4681,66.0,98.0
2.4732,7.0,98.0
2.4782,-24.0,98.0
2.4832,-1.0,98.0
2.4882,-7.0,96.0
2.4933,-19.0,96.0
2.4982,20.0,96.0
2.5032,40.0,98.0
2.5081,-21.0,98.0
2.5131,-54.0,98.0
2.5182,18.0,98.0
2.5231,55.0,98.0
2.5282,-16.0,100.0
2.5333,-47.0,100.0
2.5381,16.0,100.0
2.5434,39.0,100.0
2.5482,-11.0,100.0
2.5533,-31.0,100.0
2.5581,4.0,100.0
2.5631,20.0,100.0
2.5681,-1.0,100.0
2.5734,-1.0,100.0
2.5783,11.0,100.0
2.5834,-22.0,100.0
2.5882,-35.0,100.0
2.5931,34.0,100.0
2.5981,56.0,102.0
2.6032,-25.0,102.0
2.6082,-56.0,102.0
2.6131,8.0,102.0
2.6182,37.0,102.0
2.6233,2.0,102.0
2.6283,-14.0,102.0
2.6332,-4.0,102.0
2.6382,-5.0,102.0
2.6431,-2.0,102.0
2.6482,24.0,102.0
2.6536,22.0,102.0
2.6582,-37.0,100.0
2.6633,-54.0,102.0
2.6682,29.0,102.0
2.6732,73.0,102.0
2.6783,-8.0,102.0
2.6833,-65.0,102.0
2.6882,-6.0,102.0
2.6935,41.0,102.0
2.6981,5.0,102.0
2.7032,-20.0,102.0
2.7081,2.0,102.0
2.7131,8.0,100.0
2.7183,-11.0,100.0
2.7232,5.0,100.0
2.7282,26.0,100.0
2.7332,-23.0,100.0
2.7382,-51.0,100.0
2.7432,23.0,100.0
2.7483,65.0,100.0
2.7532,-3.0,100.0
2.7583,-51.0,102.0
2.7633,-13.0,102.0
2.7681,21.0,100.0
2.7732,7.0,100.0
2.7782,-2.0,100.0
2.7831,11.0,98.0
2.7882,-4.0,98.0
2.7932,-36.0,98.0
2.7982,30.0,96.0
2.8032,85.0,98.0
2.8081,-67.0,98.0
2.8132,-161.0,100.0
2.8182,61.0,100.0
2.8232,208.0,102.0
2.8282,-3.0,102.0
2.8332,-182.0,106.0
2.8381,-45.0,106.0
2.8431,117.0,106.0
2.8482,53.0,106.0
2.8532,-53.0,104.0
2.8587,-30.0,102.0
2.8635,3.0,98.0
2.8681,0.0,98.0
2.8731,26.0,96.0
2.8781,10.0,96.0
2.8831,-33.0,96.0
2.8882,0.0,96.0
2.8932,21.0,94.0
2.8981,-2.0,94.0
2.9031,2.0,94.0
2.9081,-46.0,94.0
2.9131,6.0,92.0
2.9182,155.0,92.0
2.9232,-69.0,88.0
2.9282,-267.0,90.0
2.9331,130.0,88.0
2.9382,279.0,90.0
2.9431,-157.0,90.0
2.9482,-175.0,92.0
2.9531,174.0,94.0
2.9582,38.0,92.0
2.9636,-181.0,94.0
2.9682,55.0,92.0
2.9732,162.0,94.0
2.9783,-83.0,94.0
2.9831,-124.0,96.0
2.9882,42.0,96.0
2.9931,97.0,96.0
2.9981,65.0,96.0
3.0033,-81.0,94.0
3.0082,-197.0,96.0
3.0131,28.0,94.0
3.0181,252.0,98.0
3.0231,53.0,96.0
3.0282,-170.0,98.0
3.0331,-79.0,98.0
3.0383,22.0,98.0
3.0431,18.0,98.0
3.0481,57.0,100.0
3.0532,42.0,100.0
3.0581,-11.0,100.0
3.0631,7.0,100.0
3.0684,-80.0,100.0
3.0732,-160.0,102.0
3.0781,81.0,104.0
3.0831,266.0,106.0
3.0883,15.0,106.0
3.0934,-205.0,108.0
3.0981,-84.0,108.0
3.1032,30.0,108.0
3.1081,56.0,108.0
3.1132,91.0,110.0
3.1182,-15.0,110.0
3.1232,-47.0,110.0
3.1281,95.0,112.0
3.1334,-90.0,112.0
3.1382,-292.0,118.0
3.1431,132.0,118.0
3.1483,413.0,124.0
3.1533,-32.0,124.0
3.1582,-305.0,128.0
3.1633,-64.0,128.0
3.1681,49.0,130.0
3.1731,87.0,130.0
3.1784,195.0,132.0
3.1831,-82.0,134.0
3.1882,-344.0,138.0
3.1931,56.0,140.0
3.1981,354.0,144.0
3.2033,-7.0,144.0
3.2082,-221.0,148.0
3.2131,-21.0,148.0
3.2182,19.0,148.0
3.2231,43.0,148.0
3.2282,182.0,150.0
3.2331,-85.0,152.0
3.2383,-351.0,156.0
3.2432,84.0,158.0
3.2482,408.0,162.0
3.2532,-15.0,162.0
3.2582,-292.0,166.0
3.2632,-18.0,166.0
3.2683,98.0,168.0
3.2732,-47.0,168.0
3.2782,5.0,168.0
3.2832,142.0,172.0
3.2883,34.0,172.0
3.2931,-161.0,174.0
3.2982,-123.0,174.0
3.3032,95.0,176.0
3.3082,153.0,178.0
3.3132,-22.0,176.0
3.3181,-113.0,178.0
3.3233,2.0,178.0
3.3282,63.0,178.0
3.3331,-22.0,178.0
3.3383,-39.0,178.0
3.3432,40.0,178.0
3.3483,33.0,180.0
3.3531,-39.0,180.0
3.3582,-28.0,180.0
3.3631,22.0,180.0
3.3682,23.0,180.0
3.3731,6.0,180.0
3.3785,-14.0,180.0
3.3832,-41.0,180.0
3.3881,-11.0,178.0
3.3931,56.0,180.0
3.3982,50.0,180.0
3.4032,-38.0,180.0
3.4085,-75.0,180.0
3.4132,-2.0,180.0
3.4184,66.0,182.0
3.4231,33.0,182.0
3.4282,-32.0,182.0
3.4335,-32.0,182.0
3.4383,4.0,182.0
3.4432,3.0,180.0
3.4481,-5.0,180.0
3.4531,32.0,178.0
3.4582,31.0,178.0
3.4634,-49.0,174.0
3.4689,-65.0,176.0
3.4731,36.0,174.0
3.4781,76.0,174.0
3.4831,-4.0,172.0
3.4883,-51.0,172.0
3.4932,-13.0,172.0
3.499,13.0,172.0
3.5031,8.0,172.0
3.5082,5.0,172.0
3.5131,2.0,172.0
3.5181,0.0,170.0
3.5237,-4.0,170.0
3.5283,-7.0,170.0
3.5331,0.0,170.0
3.5382,1.0,170.0
3.5432,-4.0,170.0
3.5485,12.0,170.0
3.5533,21.0,170.0
3.5583,-19.0,168.0
3.5632,-38.0,168.0
3.5682,15.0,164.0
3.5744,41.0,162.0
3.5793,-8.0,158.0
3.5837,-33.0,156.0
3.5883,9.0,154.0
3.5931,26.0,150.0
3.5981,-20.0,150.0
3.6031,-21.0,148.0
3.6087,39.0,148.0
3.6131,7.0,146.0
3.6182,-68.0,146.0
3.6232,12.0,144.0
3.6283,104.0,144.0
3.6333,-21.0,144.0
3.6385,-120.0,144.0
3.6437,12.0,144.0
3.6483,86.0,142.0
3.6532,-9.0,142.0
3.6584,-14.0,138.0
3.6634,35.0,138.0
3.6685,-34.0,134.0
3.6733,-80.0,134.0
3.6783,28.0,136.0
3.6832,117.0,136.0
3.6883,4.0,136.0
3.6933,-123.0,138.0
3.6983,-23.0,138.0
3.7031,95.0,138.0
3.7083,13.0,138.0
3.7134,-50.0,136.0
3.7183,12.0,134.0
3.7237,12.0,130.0
3.7285,-26.0,130.0
3.7332,12.0,128.0
3.7382,27.0,128.0
3.7434,-32.0,128.0
3.7486,-34.0,126.0
3.7536,49.0,126.0
3.7589,52.0,126.0
3.7632,-53.0,126.0
3.7681,-69.0,126.0
3.7733,43.0,126.0
3.7785,64.0,122.0
3.7831,-29.0,120.0
3.7881,-36.0,114.0
3.7934,23.0,114.0
3.7981,5.0,110.0
3.8032,-24.0,110.0
3.8088,5.0,108.0
3.8144,19.0,108.0
3.8193,2.0,104.0
3.8234,-9.0,104.0
3.8281,3.0,98.0
3.8333,15.0,98.0
3.8384,-34.0,92.0
3.8432,-45.0,92.0
3.8485,55.0,90.0
3.8532,70.0,90.0
3.8582,-46.0,92.0
3.8632,-63.0,92.0
3.8681,27.0,90.0
3.8732,35.0,88.0
3.8781,-20.0,84.0
3.883,-15.0,82.0
3.8881,17.0,76.0
3.8931,20.0,76.0
3.8985,0.0,72.0
3.9031,-33.0,72.0
3.9081,-44.0,72.0
3.9132,19.0,70.0
3.9181,82.0,72.0
3.9231,28.0,70.0
3.9281,-56.0,70.0
3.9331,-59.0,68.0
3.9381,-19.0,68.0
3.9431,35.0,66.0
3.9482,71.0,64.0
3.9532,12.0,64.0
3.9582,-59.0,64.0
3.9631,-31.0,64.0
3.9681,15.0,64.0
3.973,10.0,64.0
3.9781,11.0,64.0
3.9832,21.0,62.0
3.9882,-11.0,62.0
3.9932,-36.0,62.0
3.9981,0.0,62.0
4.0033,29.0,62.0
4.0082,3.0,62.0
4.0131,-17.0,62.0
4.0181,1.0,62.0
4.0232,13.0,62.0
4.0281,-4.0,62.0
4.0338,-11.0,60.0
4.0382,0.0,60.0
4.0431,4.0,60.0
4.0481,3.0,58.0
4.0531,7.0,58.0
4.0581,4.0,58.0
4.0634,-14.0,56.0
4.0683,-18.0,56.0
4.0733,12.0,56.0
4.0781,30.0,56.0
4.0836,-1.0,56.0
4.0889,-28.0,56.0
4.0931,-7.0,56.0
4.0981,20.0,56.0
4.1031,10.0,56.0
4.1081,-13.0,56.0
4.1145,-9.0,54.0
4.1188,5.0,54.0
4.1231,1.0,54.0
4.1282,9.0,52.0
4.1331,24.0,52.0
4.1381,-16.0,52.0
4.1431,-57.0,54.0
4.1481,0.0,54.0
4.1533,65.0,54.0
4.1583,26.0,56.0
4.1631,-43.0,56.0
4.1681,-33.0,56.0
4.1731,22.0,56.0
4.1782,20.0,56.0
4.1832,-27.0,58.0
4.1881,-7.0,58.0
4.1931,40.0,58.0
4.1981,7.0,58.0
4.2031,-33.0,58.0
4.2082,-19.0,58.0
4.2132,0.0,56.0
4.2181,29.0,56.0
4.2231,33.0,56.0
4.2281,-20.0,56.0
4.2331,-32.0,58.0
4.2382,2.0,56.0
4.2432,-6.0,56.0
4.2481,-1.0,56.0
4.253,45.0,56.0
4.258,24.0,56.0
4.2632,-50.0,56.0
4.2685,-45.0,56.0
4.2733,19.0,56.0
4.2782,40.0,54.0
4.2831,13.0,54.0
4.2885,-28.0,54.0
4.2934,-20.0,54.0
4.2983,40.0,54.0
4.3033,0.0,54.0
4.3081,-81.0,54.0
4.3131,20.0,54.0
4.3183,126.0,54.0
4.3233,-23.0,54.0
4.3281,-139.0,56.0
4.3332,17.0,54.0
4.3381,107.0,56.0
4.3431,-27.0,54.0
4.3482,-50.0,54.0
4.3532,60.0,54.0
4.3582,-8.0,54.0
4.3632,-99.0,56.0
4.3682,57.0,56.0
4.3732,120.0,58.0
4.3784,-82.0,60.0
4.3833,-113.0,60.0
4.3881,68.0,60.0
4.3931,75.0,62.0
4.3982,-27.0,60.0
4.4033,-17.0,60.0
4.4083,-3.0,60.0
4.4133,-35.0,60.0
4.4182,-2.0,58.0
4.4232,48.0,58.0
4.4281,29.0,58.0
4.4336,-16.0,58.0
4.4383,-43.0,58.0
4.4432,-24.0,58.0
4.4481,33.0,60.0
4.4531,39.0,60.0
4.4584,-16.0,60.0
4.4634,-22.0,60.0
4.4683,6.0,60.0
4.4733,-12.0,60.0
4.4781,-10.0,60.0
4.4831,47.0,60.0
4.4882,24.0,60.0
4.4934,-59.0,58.0
4.4981,-35.0,58.0
4.5031,46.0,58.0
4.5082,33.0,58.0
4.5131,-23.0,58.0
4.5182,-23.0,58.0
4.5233,2.0,58.0
4.5282,13.0,58.0
4.5332,15.0,58.0
4.5381,-4.0,58.0
4.5434,-27.0,58.0
4.5481,-3.0,58.0
4.5532,27.0,58.0
4.5582,7.0,56.0
4.5631,-18.0,56.0
4.5682,-10.0,56.0
4.5731,5.0,54.0
4.5783,14.0,54.0
4.5832,15.0,54.0
4.5881,-15.0,54.0
4.5932,-40.0,54.0
4.5981,6.0,54.0
4.6031,57.0,54.0
4.6084,8.0,54.0
4.6133,-55.0,54.0
4.6181,-19.0,54.0
4.6231,35.0,54.0
4.6282,15.0,54.0
4.6333,-11.0,54.0
4.6382,1.0,54.0
4.6433,-5.0,54.0
4.6481,-20.0,54.0
4.6531,11.0,54.0
4.6581,33.0,54.0
4.6633,-9.0,54.0
4.6683,-34.0,54.0
4.6732,5.0,54.0
4.6781,24.0,56.0
4.6831,-2.0,56.0
4.6882,-13.0,56.0
4.6931,2.0,56.0
4.6981,7.0,56.0
4.7031,0.0,54.0
4.7081,-3.0,54.0
4.7133,-4.0,54.0
4.7182,-4.0,54.0
4.7233,-1.0,54.0
4.7283,11.0,54.0
4.7333,12.0,54.0
4.7382,-10.0,54.0
4.7433,-15.0,54.0
4.7482,8.0,54.0
4.7533,7.0,54.0
4.7583,-10.0,54.0
4.7631,0.0,54.0
4.7682,19.0,54.0
4.7733,-5.0,54.0
4.7783,-31.0,54.0
4.7833,5.0,54.0
4.7884,40.0,54.0
4.7931,-6.0,52.0
4.7981,-41.0,54.0
4.8033,7.0,52.0
4.8082,33.0,52.0
4.8133,-11.0,52.0
4.8181,-22.0,52.0
4.8231,20.0,52.0
4.8283,11.0,52.0
4.8333,-31.0,52.0
4.8383,3.0,52.0
4.8432,40.0,52.0
4.8483,-25.0,52.0
4.8531,-49.0,54.0
4.8581,45.0,54.0
4.8638,59.0,54.0
4.8683,-51.0,54.0
4.8731,-56.0,54.0
4.8781,43.0,56.0
4.8832,24.0,56.0
4.8883,-43.0,56.0
4.8933,22.0,56.0
4.8983,56.0,56.0
4.9033,-47.0,56.0
4.9087,-68.0,56.0
4.9135,38.0,56.0
4.9183,58.0,58.0
4.9233,-20.0,58.0
4.9283,-26.0,58.0
4.9332,24.0,58.0
4.9381,0.0,56.0
4.9433,-48.0,58.0
4.9482,-2.0,56.0
4.9532,69.0,58.0
4.9583,24.0,56.0
4.9631,-68.0,56.0
4.9681,-46.0,54.0
4.9731,35.0,54.0
4.9781,47.0,54.0
4.9832,18.0,54.0
4.9882,-20.0,54.0
4.9931,-56.0,54.0
4.9981,-22.0,54.0
5.0032,46.0,52.0
5.0084,50.0,52.0
5.0133,-4.0,50.0
5.0182,-43.0,50.0
5.0236,-29.0,48.0
5.0282,16.0,48.0
5.0333,30.0,48.0
5.0382,7.0,48.0
5.0432,-9.0,46.0
5.0482,-15.0,48.0
5.0531,-8.0,46.0
5.0581,8.0,46.0
5.0633,11.0,46.0
5.0682,8.0,46.0
5.0732,5.0,46.0
5.0781,-24.0,46.0
5.0831,-38.0,46.0
5.0884,20.0,46.0
5.0934,61.0,46.0
5.0983,1.0,46.0
5.1032,-48.0,46.0
5.1081,-18.0,46.0
5.1131,10.0,46.0
5.1182,7.0,46.0
5.1235,17.0,46.0
5.1281,20.0,46.0
5.1331,-12.0,44.0
5.1381,-30.0,44.0
5.1431,-4.0,44.0
5.1484,14.0,44.0
5.1533,2.0,44.0
5.1581,2.0,44.0
5.1631,13.0,44.0
5.1681,-1.0,44.0
5.1732,-22.0,44.0
5.1783,-6.0,44.0
5.1831,18.0,44.0
5.1881,6.0,44.0
5.1931,-17.0,42.0
5.1981,-3.0,42.0
5.2031,24.0,44.0
5.2083,8.0,42.0
5.2138,-27.0,44.0
5.2186,-21.0,44.0
5.2231,13.0,44.0
5.2282,23.0,44.0
5.2332,10.0,44.0
5.2383,-4.0,44.0
5.2433,-23.0,42.0
5.2482,-22.0,42.0
5.2532,13.0,42.0
5.2581,32.0,42.0
5.2632,5.0,42.0
5.2686,-22.0,42.0
5.2733,-16.0,42.0
5.2781,4.0,42.0
5.2831,12.0,42.0
5.2881,10.0,42.0
5.2933,0.0,42.0
5.2982,-19.0,42.0
5.3034,-14.0,42.0
5.3081,21.0,42.0
5.3132,22.0,42.0
5.3181,-21.0,42.0
5.3233,-13.0,42.0
5.3283,40.0,42.0
5.3331,9.0,42.0
5.3381,-63.0,44.0
5.3433,-25.0,44.0
5.3481,54.0,44.0
5.3533,32.0,44.0
5.3581,-21.0,46.0
5.3632,-11.0,46.0
5.3681,3.0,46.0
5.3731,-14.0,46.0
5.3783,-10.0,46.0
5.3833,21.0,46.0
5.3883,22.0,46.0
5.3931,-14.0,46.0
5.3981,-24.0,46.0
5.4031,9.0,46.0
5.4082,21.0,46.0
5.4141,-5.0,46.0
5.4181,-19.0,46.0
5.4231,0.0,46.0
5.4281,18.0,46.0
5.4332,5.0,46.0
5.4383,-22.0,46.0
5.4433,-8.0,46.0
5.4482,30.0,46.0
5.4531,9.0,46.0
5.4582,-38.0,46.0
5.4633,-3.0,46.0
5.4682,46.0,46.0
5.4732,-4.0,46.0
5.4785,-53.0,46.0
5.483,0.0,46.0
5.4882,49.0,46.0
5.4931,14.0,46.0
5.4983,-25.0,44.0
5.5033,-17.0,44.0
5.5081,-6.0,44.0
5.5131,-2.0,42.0
5.5182,21.0,42.0
5.5232,29.0,42.0
5.5281,-7.0,42.0
5.5332,-40.0,42.0
5.5381,-32.0,42.0
5.5432,18.0,42.0
5.5482,60.0,42.0
5.5532,22.0,40.0
5.5581,-36.0,40.0
5.5632,-33.0,40.0
5.5681,-12.0,40.0
5.5732,-6.0,40.0
5.5784,21.0,40.0
5.5832,57.0,40.0
5.5881,19.0,40.0
5.5931,-69.0,40.0
5.598,-59.0,42.0
5.6032,43.0,42.0
5.6083,63.0,42.0
5.6132,-13.0,42.0
5.619,-43.0,40.0
5.6232,-2.0,40.0
5.6281,22.0,40.0
5.6331,12.0,40.0
5.6383,-7.0,40.0
5.6431,-20.0,40.0
5.6481,-1.0,38.0
5.6531,23.0,38.0
5.6581,2.0,38.0
5.6632,-20.0,38.0
5.6682,5.0,38.0
5.6731,16.0,38.0
5.6781,-16.0,38.0
5.6831,-16.0,38.0
5.6881,16.0,38.0
5.693,22.0,38.0
5.6982,3.0,38.0
5.7031,-21.0,38.0
5.7081,-29.0,38.0
5.7131,7.0,38.0
5.7181,48.0,40.0
5.7232,12.0,38.0
5.7281,-62.0,40.0
5.7331,-31.0,38.0
5.7381,67.0,40.0
5.7432,48.0,40.0
5.7481,-51.0,40.0
5.7533,-52.0,42.0
5.7581,20.0,42.0
5.7631,35.0,42.0
5.7681,0.0,42.0
5.7731,-13.0,42.0
5.7782,0.0,40.0
5.7831,6.0,40.0
5.7881,-7.0,40.0
5.7931,-15.0,40.0
5.7981,4.0,40.0
5.8033,24.0,42.0
5.8082,8.0,42.0
5.8133,-18.0,42.0
5.8181,-16.0,42.0
5.8231,-3.0,42.0
5.8282,7.0,42.0
5.8336,25.0,42.0
5.8381,13.0,42.0
5.8441,-32.0,42.0
5.8481,-35.0,42.0
5.853,18.0,42.0
5.8581,41.0,42.0
5.8631,4.0,42.0
5.8682,-30.0,42.0
5.8733,-17.0,42.0
5.8781,12.0,42.0
5.8837,15.0,42.0
5.8882,2.0,42.0
5.8932,-7.0,42.0
5.8983,-15.0,42.0
5.9032,-3.0,42.0
5.9085,29.0,42.0
5.9131,16.0,42.0
5.9182,-36.0,42.0
5.9233,-27.0,42.0
5.9282,30.0,42.0
5.9331,25.0,44.0
5.9383,-18.0,44.0
5.9433,-11.0,42.0
5.9481,12.0,42.0
5.9532,-1.0,42.0
5.9583,-15.0,42.0
5.9631,8.0,42.0
5.9681,24.0,42.0
5.9733,-11.0,42.0
5.9783,-33.0,42.0
5.9832,8.0,42.0
5.9883,34.0,42.0
5.9931,0.0,40.0
5.9981,-21.0,40.0
6.0033,-12.0,40.0
6.0082,4.0,40.0
6.0133,31.0,40.0
6.0183,10.0,40.0
6.0231,-53.0,42.0
6.0287,-19.0,42.0
6.0334,63.0,42.0
6.0381,22.0,42.0
6.0432,-48.0,42.0
6.0487,-20.0,42.0
6.0535,6.0,42.0
6.0581,6.0,42.0
6.0633,41.0,44.0
6.0683,23.0,44.0
6.0732,-58.0,44.0
6.0781,-49.0,44.0
6.083,37.0,44.0
6.0884,40.0,46.0
6.0933,-16.0,46.0
6.0982,-2.0,44.0
6.1031,23.0,44.0
6.1081,-38.0,44.0
6.1142,-38.0,46.0
6.1182,67.0,46.0
6.1233,38.0,46.0
6.1282,-83.0,46.0
6.1331,-23.0,46.0
6.1381,83.0,48.0
6.1433,13.0,48.0
6.1484,-71.0,48.0
6.1531,-18.0,48.0
6.1582,61.0,50.0
6.1632,35.0,50.0
6.1681,-58.0,50.0
6.1733,-54.0,50.0
6.1784,47.0,50.0
6.1831,58.0,52.0
6.1882,-14.0,50.0
6.1931,-29.0,50.0
6.1981,-15.0,50.0
6.2033,-22.0,50.0
6.2082,10.0,50.0
6.2132,57.0,52.0
6.2181,24.0,52.0
6.2231,-41.0,50.0
6.2281,-50.0,52.0
6.2338,-13.0,50.0
6.2383,40.0,50.0
6.2433,65.0,50.0
6.2481,-6.0,50.0
6.2531,-86.0,50.0
6.2582,-25.0,50.0
6.2632,74.0,52.0
6.2682,35.0,52.0
6.2733,-47.0,52.0
6.2781,-27.0,52.0
6.2831,21.0,52.0
6.2882,15.0,52.0
6.2932,2.0,52.0
6.2982,-6.0,52.0
6.3031,-19.0,52.0
6.3081,2.0,52.0
6.3131,27.0,52.0
6.3182,1.0,52.0
6.3234,-21.0,52.0
6.3283,-2.0,52.0
6.3331,9.0,52.0
6.3384,-1.0,52.0
6.3431,-1.0,52.0
6.3482,4.0,52.0
6.3533,-5.0,52.0
6.3582,-4.0,50.0
6.3631,15.0,50.0
6.368,7.0,50.0
6.373,-23.0,50.0
6.3782,-15.0,50.0
6.3833,24.0,48.0
6.3882,24.0,48.0
6.3931,-13.0,48.0
6.3982,-23.0,48.0
6.4031,-1.0,48.0
6.4083,9.0,48.0
6.4132,8.0,48.0
6.4181,6.0,48.0
6.4231,-6.0,48.0
6.4282,-12.0,48.0
6.4331,4.0,48.0
6.4383,12.0,48.0
6.4432,-6.0,48.0
6.4488,-13.0,48.0
6.4531,10.0,48.0
6.458,17.0,48.0
6.4631,-8.0,48.0
6.4683,-15.0,48.0
6.4731,7.0,46.0
6.4781,3.0,46.0
6.4831,-13.0,46.0
6.4881,11.0,46.0
6.4933,28.0,46.0
6.4984,-23.0,46.0
6.5032,-46.0,46.0
6.5081,25.0,46.0
6.5131,55.0,48.0
6.5183,-16.0,48.0
6.5233,-46.0,48.0
6.5282,7.0,48.0
6.5333,20.0,48.0
6.538,-8.0,48.0
6.5432,5.0,48.0
6.5481,20.0,48.0
6.5533,-17.0,48.0
6.5582,-31.0,48.0
6.5631,14.0,48.0
6.5681,34.0,48.0
6.5731,-4.0,48.0
6.5783,-29.0,48.0
6.5833,-7.0,48.0
6.5882,13.0,48.0
6.5931,18.0,48.0
6.5981,11.0,48.0
6.6033,-20.0,48.0
6.6083,-33.0,48.0
6.6132,14.0,48.0
6.6182,37.0,48.0
6.6231,-13.0,48.0
6.6282,-32.0,48.0
6.6333,20.0,48.0
6.6382,40.0,48.0
6.6431,-8.0,48.0
6.6481,-55.0,50.0
6.6532,-24.0,50.0
6.6582,49.0,50.0
6.6631,36.0,50.0
6.6682,-29.0,50.0
6.6732,0.0,48.0
6.6781,26.0,48.0
6.6831,-46.0,48.0
6.6884,-34.0,50.0
6.6931,57.0,50.0
6.6981,15.0,50.0
6.7032,-50.0,50.0
6.7081,17.0,50.0
6.7132,56.0,50.0
6.7183,-21.0,50.0
6.7232,-64.0,50.0
6.7282,-5.0,50.0
6.7332,53.0,50.0
6.738,28.0,50.0
6.7431,-25.0,50.0
6.7483,-22.0,50.0
6.7533,-4.0,50.0
6.7581,-2.0,48.0
6.7632,25.0,48.0
6.7681,25.0,48.0
6.7731,-29.0,48.0
6.7784,-30.0,46.0
6.7831,11.0,46.0
6.7883,11.0,46.0
6.7931,16.0,46.0
6.7981,23.0,46.0
6.803,-37.0,46.0
6.8082,-53.0,46.0
6.8132,51.0,46.0
6.8181,66.0,46.0
6.823,-61.0,46.0
6.8281,-70.0,46.0
6.8336,56.0,46.0
6.8383,63.0,48.0
6.8432,-33.0,48.0
6.8481,-32.0,48.0
6.853,7.0,48.0
6.8583,-24.0,48.0
6.8645,2.0,46.0
6.8681,76.0,48.0
6.8731,1.0,46.0
6.8782,-94.0,48.0
6.8831,-7.0,46.0
6.8882,73.0,48.0
6.8932,2.0,46.0
6.8982,-35.0,46.0
6.9031,16.0,46.0
6.908,9.0,46.0
6.9131,-34.0,46.0
6.9181,-3.0,44.0
6.9233,36.0,46.0
6.9281,3.0,44.0
6.9331,-24.0,46.0
6.938,1.0,46.0
6.9431,12.0,46.0
6.9487,-10.0,46.0
6.9531,-7.0,44.0
6.9581,13.0,46.0
6.9631,6.0,44.0
6.9681,-11.0,44.0
6.973,0.0,44.0
6.9783,12.0,44.0
6.9833,-5.0,46.0
6.9881,-24.0,46.0
6.9932,3.0,46.0
6.9982,31.0,46.0
7.0031,5.0,46.0
7.0083,-21.0,46.0
7.0134,-10.0,46.0
7.0181,-4.0,46.0
7.0231,1.0,46.0
7.0281,28.0,46.0
7.0332,14.0,46.0
7.0383,-37.0,46.0
7.0432,-27.0,46.0
7.0481,28.0,46.0
7.0531,34.0,46.0
7.0585,-8.0,46.0
7.0631,-31.0,46.0
7.069,-6.0,46.0
7.0731,21.0,48.0
7.0781,7.0,46.0
7.0832,-10.0,48.0
7.0881,0.0,46.0
7.0933,-1.0,46.0
7.0982,-9.0,46.0
7.1032,14.0,46.0
7.1082,21.0,46.0
7.1132,-16.0,46.0
7.1184,-28.0,48.0
7.1232,5.0,48.0
7.1283,15.0,48.0
7.1331,2.0,46.0
7.138,6.0,46.0
7.1432,4.0,46.0
7.1481,-15.0,46.0
7.1533,-18.0,46.0
7.1581,3.0,44.0
7.1631,17.0,44.0
7.1681,11.0,44.0
7.1732,0.0,44.0
7.1783,-8.0,44.0
7.1832,-15.0,44.0
7.1882,-9.0,44.0
7.1931,17.0,44.0
7.198,22.0,44.0
7.2032,-6.0,44.0
7.2081,-23.0,44.0
7.2132,-9.0,44.0
7.2181,20.0,44.0
7.2231,29.0,44.0
7.2281,-15.0,44.0
7.2333,-47.0,44.0
7.2382,4.0,44.0
7.2432,47.0,44.0
7.2481,3.0,44.0
7.253,-28.0,44.0
7.2582,3.0,44.0
7.2631,13.0,44.0
7.2681,-17.0,44.0
7.2732,-16.0,44.0
7.2782,21.0,44.0
7.2831,25.0,44.0
7.2882,-16.0,44.0
7.2931,-21.0,44.0
7.2982,14.0,42.0
7.3031,6.0,42.0
7.3081,-23.0,42.0
7.3131,3.0,42.0
7.3181,31.0,42.0
7.3232,-4.0,42.0
7.3281,-27.0,42.0
7.3331,2.0,40.0
7.338,14.0,40.0
7.3432,-5.0,40.0
7.3481,0.0,40.0
7.3532,10.0,38.0
7.3582,-7.0,38.0
7.3631,-14.0,38.0
7.368,13.0,38.0
7.373,19.0,38.0
7.3783,-24.0,38.0
7.3832,-35.0,38.0
7.3883,31.0,38.0
7.3931,60.0,38.0
7.3981,-16.0,38.0
7.4034,-70.0,40.0
7.4082,-15.0,40.0
7.4131,48.0,40.0
7.4181,37.0,40.0
7.423,-6.0,40.0
7.4281,-29.0,40.0
7.4331,-24.0,40.0
7.4381,2.0,40.0
7.4431,31.0,40.0
7.448,24.0,40.0
7.4531,-24.0,38.0
7.4581,-40.0,38.0
7.4633,11.0,38.0
7.4681,45.0,38.0
7.4731,4.0,36.0
7.4781,-32.0,36.0
7.4831,-12.0,36.0
7.488,3.0,36.0
7.4933,-6.0,36.0
7.4981,14.0,34.0
7.5031,39.0,36.0
7.5081,-5.0,34.0
7.5132,-56.0,36.0
7.5183,-6.0,34.0
7.5233,55.0,34.0
7.5281,0.0,34.0
7.5331,-56.0,34.0
7.5381,10.0,34.0
7.5432,57.0,34.0
7.548,-8.0,34.0
7.5531,-44.0,34.0
7.5582,1.0,34.0
7.5631,20.0,34.0
7.569,-5.0,34.0
7.5735,0.0,34.0
7.579,19.0,34.0
7.5831,-6.0,34.0
7.5881,-40.0,34.0
7.5931,9.0,34.0
7.598,66.0,36.0
7.6032,-13.0,36.0
7.6083,-93.0,36.0
7.6131,3.0,38.0
7.6181,97.0,38.0
7.6231,21.0,38.0
7.6283,-62.0,40.0
7.6333,-31.0,40.0
7.6382,12.0,40.0
7.6436,10.0,40.0
7.6484,21.0,40.0
7.6532,30.0,40.0
7.6583,-28.0,40.0
7.6636,-65.0,42.0
7.669,23.0,42.0
7.6731,74.0,42.0
7.6783,-25.0,42.0
7.6832,-67.0,42.0
7.6884,35.0,42.0
7.6936,57.0,42.0
7.6986,-32.0,44.0
7.7036,-44.0,44.0
7.7082,16.0,44.0
7.7134,22.0,44.0
7.7182,-5.0,44.0
7.7232,6.0,44.0
7.728,11.0,44.0
7.7333,-36.0,44.0
7.7383,-35.0,44.0
7.7433,58.0,46.0
7.7484,66.0,46.0
7.7536,-71.0,46.0
7.7583,-94.0,48.0
7.7633,75.0,50.0
7.7685,109.0,50.0
7.7733,-68.0,52.0
7.7787,-104.0,54.0
7.7835,54.0,54.0
7.7884,75.0,54.0
7.7933,-46.0,56.0
7.7982,-34.0,56.0
7.8033,54.0,56.0
7.8088,4.0,56.0
7.8141,-67.0,58.0
7.8188,2.0,58.0
7.8232,67.0,58.0
7.8283,-5.0,58.0
7.8333,-59.0,58.0
7.8387,14.0,58.0
7.8432,56.0,60.0
7.8484,-19.0,60.0
7.8532,-57.0,60.0
7.8584,18.0,60.0
7.8636,60.0,60.0
7.8687,-17.0,60.0
7.8731,-53.0,60.0
7.8786,20.0,60.0
7.8836,25.0,60.0
7.888,-40.0,60.0
7.8941,11.0,60.0
7.8986,73.0,62.0
7.9031,-31.0,62.0
7.9081,-97.0,64.0
7.9133,26.0,64.0
7.9187,87.0,64.0
7.9236,-13.0,64.0
7.9281,-53.0,64.0
7.9331,13.0,64.0
7.9382,20.0,64.0
7.9435,-26.0,66.0
7.9483,0.0,64.0
7.9535,42.0,66.0
7.9588,-12.0,66.0
7.9633,-57.0,66.0
7.9683,19.0,66.0
7.9733,67.0,66.0
7.9786,-16.0,66.0
7.9836,-67.0,68.0
7.9883,6.0,68.0
7.9931,56.0,68.0
7.998,2.0,68.0
8.0032,-35.0,68.0
8.0081,-1.0,68.0
8.0136,14.0,68.0
8.0183,-8.0,68.0
8.0232,7.0,68.0
8.0283,25.0,68.0
8.0336,-34.0,68.0
8.0386,-46.0,68.0
8.0436,58.0,68.0
8.0484,65.0,68.0
8.0532,-64.0,68.0
8.0585,-72.0,70.0
8.0635,47.0,70.0
8.0686,59.0,70.0
8.0738,-20.0,70.0
8.0788,-26.0,70.0
8.0832,4.0,70.0
8.0883,-8.0,70.0
8.0934,-11.0,70.0
8.0986,29.0,70.0
8.1036,34.0,70.0
8.1082,-33.0,70.0
8.1132,-61.0,70.0
8.1184,22.0,70.0
8.1236,83.0,72.0
8.1285,2.0,72.0
8.1332,-86.0,72.0
8.1381,-30.0,74.0
8.1434,63.0,74.0
8.1482,42.0,74.0
8.1536,-21.0,74.0
8.1587,-24.0,74.0
8.1635,-15.0,74.0
8.1683,-16.0,74.0
8.1735,35.0,74.0
8.1792,60.0,74.0
8.1834,-39.0,74.0
8.1886,-91.0,74.0
8.1932,32.0,74.0
8.1983,100.0,76.0
8.2034,-14.0,76.0
8.2086,-85.0,78.0
8.2132,-4.0,78.0
8.2181,49.0,78.0
8.2232,16.0,78.0
8.2283,-6.0,78.0
8.2333,-9.0,78.0
8.238,-28.0,78.0
8.2431,-13.0,78.0
8.2482,47.0,76.0
8.2532,42.0,76.0
8.2583,-49.0,76.0
8.2635,-64.0,76.0
8.2684,35.0,76.0
8.2738,63.0,76.0
8.2783,-12.0,76.0
8.2832,-37.0,78.0
8.2883,-1.0,78.0
8.2941,5.0,76.0
8.2985,-3.0,76.0
8.3033,8.0,76.0
8.3083,13.0,76.0
8.3132,0.0,74.0
8.3184,-15.0,74.0
8.3236,-10.0,72.0
8.3286,13.0,72.0
8.3332,1.0,72.0
8.3383,-21.0,72.0
8.3431,12.0,72.0
8.3486,34.0,72.0
8.3537,-14.0,72.0
8.3591,-36.0,72.0
8.3632,7.0,72.0
8.3682,23.0,72.0
8.3732,-7.0,72.0
8.3787,-10.0,72.0
8.3842,14.0,70.0
8.388,4.0,70.0
8.3932,-20.0,68.0
8.3982,5.0,68.0
8.4031,28.0,66.0
8.4089,-26.0,66.0
8.4136,-45.0,64.0
8.4182,37.0,64.0
8.4231,63.0,64.0
8.4281,-22.0,64.0
8.4333,-62.0,64.0
8.4387,0.0,62.0
8.4431,41.0,62.0
8.4481,5.0,62.0
8.4532,-21.0,62.0
8.458,4.0,62.0
8.4635,12.0,62.0
8.4687,-16.0,62.0
8.4734,0.0,60.0
8.4783,26.0,60.0
8.4833,-15.0,60.0
8.4892,-39.0,60.0
8.4935,20.0,60.0
8.4987,43.0,60.0
8.5031,-10.0,60.0
8.5083,-25.0,60.0
8.5132,3.0,58.0
8.5181,0.0,58.0
8.5236,-10.0,58.0
8.5286,8.0,58.0
8.5332,17.0,58.0
8.5382,-4.0,56.0
8.5434,-18.0,56.0
8.5481,8.0,54.0
8.5537,28.0,54.0
8.5584,-17.0,54.0
8.5631,-52.0,54.0
8.5682,8.0,54.0
8.5733,68.0,54.0
8.5789,20.0,54.0
8.5838,-57.0,56.0
8.5889,-47.0,56.0
8.5931,24.0,56.0
8.5982,52.0,56.0
8.6032,12.0,56.0
8.6083,-26.0,56.0
8.6137,-37.0,56.0
8.6183,-21.0,56.0
8.6232,45.0,54.0
8.6283,69.0,56.0
8.6333,-42.0,56.0
8.6385,-103.0,58.0
8.6431,31.0,58.0
8.6481,115.0,58.0
8.6531,-16.0,58.0
8.658,-104.0,60.0
8.6631,1.0,60.0
8.6683,71.0,62.0
8.6732,5.0,60.0
8.678,-29.0,60.0
8.6831,-1.0,60.0
8.6882,-11.0,58.0
8.6935,-15.0,58.0
8.6982,43.0,58.0
8.703,42.0,58.0
8.708,-58.0,58.0
8.7131,-70.0,58.0
8.7181,42.0,58.0
8.7232,76.0,60.0
8.7282,-7.0,60.0
8.7331,-48.0,60.0
8.7381,-15.0,60.0
8.7431,8.0,60.0
8.7482,6.0,60.0
8.7532,10.0,58.0
8.7581,15.0,58.0
8.7631,-4.0,56.0
8.7681,-27.0,58.0
8.7731,-5.0,56.0
8.7783,26.0,56.0
8.7831,1.0,54.0
8.7881,-27.0,54.0
8.7933,8.0,54.0
8.798,30.0,54.0
8.8032,-12.0,54.0
8.8093,-28.0,54.0
8.8131,11.0,54.0
8.818,23.0,54.0
8.8231,-7.0,54.0
8.8281,-16.0,52.0
8.8331,-1.0,52.0
8.8382,1.0,50.0
8.8432,3.0,50.0
8.8481,24.0,48.0
8.8531,14.0,50.0
8.8581,-43.0,50.0
8.8652,-45.0,50.0
8.8682,35.0,50.0
8.8731,64.0,50.0
8.8781,-6.0,50.0
8.883,-58.0,52.0
8.8881,-18.0,50.0
8.8931,34.0,50.0
8.8982,19.0,50.0
8.9031,-9.0,50.0
8.908,3.0,48.0
8.9131,-3.0,48.0
8.9182,-33.0,48.0
8.9232,1.0,48.0
8.9283,53.0,48.0
8.9332,9.0,48.0
8.9381,-53.0,50.0
8.9431,-20.0,50.0
8.9483,39.0,50.0
8.9533,24.0,50.0
8.9582,-20.0,50.0
8.9631,-20.0,50.0
8.968,0.0,50.0
8.9734,9.0,50.0
8.9783,17.0,50.0
8.9832,10.0,50.0
8.9883,-26.0,50.0
8.993,-33.0,50.0
8.9986,21.0,50.0
9.0032,45.0,50.0
9.0081,-11.0,50.0
9.0131,-36.0,52.0
9.0181,11.0,52.0
9.023,18.0,52.0
9.0281,-25.0,52.0
9.0332,-9.0,52.0
9.0382,40.0,52.0
9.0431,16.0,52.0
9.0481,-39.0,52.0
9.0531,-20.0,52.0
9.058,33.0,52.0
9.0633,11.0,50.0
9.0681,-37.0,50.0
9.0731,0.0,50.0
9.078,46.0,50.0
9.083,-8.0,50.0
9.088,-48.0,50.0
9.0934,15.0,50.0
9.0982,44.0,52.0
9.1033,-16.0,52.0
9.1081,-37.0,52.0
9.113,9.0,52.0
9.118,23.0,52.0
9.1236,-3.0,52.0
9.1282,-1.0,50.0
9.1332,14.0,50.0
9.138,-14.0,50.0
9.1431,-36.0,50.0
9.1481,16.0,50.0
9.1534,51.0,52.0
9.1581,-4.0,52.0
9.1633,-52.0,52.0
9.1682,-19.0,52.0
9.1731,33.0,52.0
9.1783,36.0,54.0
9.1832,-4.0,52.0
9.1882,-32.0,54.0
9.193,-16.0,54.0
9.198,14.0,54.0
9.2035,28.0,52.0
9.2081,6.0,52.0
9.2131,-41.0,52.0
9.2181,-30.0,52.0
9.223,46.0,52.0
9.228,49.0,52.0
9.2333,-37.0,52.0
9.2381,-49.0,52.0
9.2431,21.0,52.0
9.2481,32.0,52.0
9.2531,-12.0,52.0
9.2581,-19.0,52.0
9.2631,8.0,52.0
9.2682,26.0,50.0
9.2731,10.0,50.0
9.2781,-20.0,50.0
9.283,-23.0,50.0
9.288,-21.0,48.0
9.2931,-20.0,48.0
9.2982,41.0,46.0
9.3031,91.0,48.0
9.3081,1.0,46.0
9.3131,-107.0,48.0
9.3182,-55.0,48.0
9.3232,64.0,50.0
9.3282,69.0,50.0
9.3331,-23.0,50.0
9.338,-53.0,52.0
9.3431,5.0,50.0
9.348,28.0,50.0
9.3532,6.0,50.0
9.3581,10.0,48.0
9.3631,-13.0,48.0
9.3681,-54.0,48.0
9.3731,7.0,48.0
9.3789,76.0,48.0
9.3832,5.0,48.0
9.3882,-67.0,50.0
9.3931,-11.0,50.0
9.398,43.0,50.0
9.4031,13.0,50.0
9.4082,-17.0,50.0
9.4132,-14.0,50.0
9.4181,-9.0,50.0
9.423,6.0,50.0
9.4282,33.0,50.0
9.4331,18.0,50.0
9.4383,-42.0,50.0
9.4433,-49.0,50.0
9.448,31.0,50.0
9.4531,63.0,52.0
9.458,-9.0,52.0
9.4639,-55.0,52.0
9.4683,-8.0,52.0
9.4732,40.0,52.0
9.4781,21.0,54.0
9.4831,-27.0,54.0
9.488,-32.0,54.0
9.4933,10.0,54.0
9.4983,36.0,54.0
9.5033,20.0,54.0
9.5081,-16.0,52.0
9.5131,-57.0,52.0
9.5184,-36.0,54.0
9.5231,68.0,54.0
9.5282,99.0,54.0
9.5331,-32.0,54.0
9.5381,-125.0,56.0
9.543,-27.0,56.0
9.5482,91.0,58.0
9.5532,57.0,58.0
9.558,-34.0,58.0
9.5631,-37.0,60.0
9.5681,-1.0,58.0
9.5731,-3.0,58.0
9.5781,16.0,58.0
9.5832,37.0,58.0
9.5881,-31.0,58.0
9.593,-65.0,58.0
9.598,36.0,58.0
9.6032,81.0,60.0
9.6081,-21.0,60.0
9.6132,-70.0,62.0
9.6182,2.0,60.0
9.623,37.0,62.0
9.628,0.0,60.0
9.6332,-3.0,60.0
9.6382,15.0,60.0
9.6432,-20.0,60.0
9.6481,-47.0,60.0
9.653,39.0,60.0
9.6581,87.0,62.0
9.6631,-46.0,62.0
9.6683,-115.0,64.0
9.6732,30.0,64.0
9.6781,102.0,64.0
9.6831,-6.0,64.0
9.6885,-52.0,64.0
9.6934,2.0,64.0
9.6981,7.0,64.0
9.7032,-13.0,64.0
9.708,9.0,64.0
9.713,17.0,64.0
9.7182,-17.0,64.0
9.724,-16.0,64.0
9.7283,36.0,64.0
9.7332,34.0,64.0
9.738,-56.0,64.0
9.7431,-67.0,64.0
9.7481,52.0,66.0
9.7532,86.0,66.0
9.7582,-21.0,66.0
9.7631,-71.0,68.0
9.768,-6.0,68.0
9.7732,39.0,68.0
9.7785,14.0,68.0
9.7831,-13.0,68.0
9.7881,-9.0,68.0
9.7931,-4.0,66.0
9.798,-2.0,66.0
9.803,25.0,66.0
9.8082,26.0,66.0
9.8133,-46.0,66.0
9.8181,-58.0,66.0
9.823,43.0,68.0
9.8288,72.0,68.0
9.8331,-18.0,68.0
9.838,-51.0,68.0
9.8431,0.0,68.0
9.848,14.0,68.0
9.853,-8.0,68.0
9.8581,4.0,68.0
9.863,25.0,66.0
9.8682,-4.0,66.0
9.8732,-31.0,66.0
9.878,10.0,66.0
9.883,32.0,66.0
9.8881,-31.0,66.0
9.8934,-33.0,66.0
9.8984,51.0,66.0
9.9031,24.0,66.0
9.9081,-61.0,68.0
9.913,-8.0,68.0
9.9182,57.0,68.0
9.923,0.0,68.0
9.9286,-37.0,68.0
9.9337,6.0,68.0
9.9381,13.0,68.0
9.9431,-23.0,66.0
9.948,-10.0,66.0
9.9532,41.0,66.0
9.9582,33.0,64.0
9.9631,-41.0,64.0
9.9681,-61.0,64.0
9.973,16.0,64.0
9.9782,63.0,64.0
9.9832,13.0,64.0
9.9882,-32.0,64.0
9.9931,-16.0,64.0
9.9981,-1.0,64.0
10.003,-7.0,64.0
10.0081,11.0,64.0
10.0132,32.0,64.0
10.0182,-4.0,64.0
10.0231,-42.0,64.0
10.028,1.0,62.0
10.033,44.0,64.0
10.0381,-7.0,62.0
10.0433,-48.0,64.0
10.0482,7.0,64.0
10.053,46.0,64.0
10.0582,2.0,64.0
10.0631,-30.0,64.0
10.0682,-9.0,64.0
10.0732,5.0,64.0
10.078,-2.0,62.0
10.0832,13.0,62.0
10.0882,27.0,62.0
10.0932,-13.0,62.0
10.0982,-49.0,62.0
10.1031,5.0,62.0
10.108,55.0,62.0
10.1131,-5.0,62.0
10.118,-49.0,62.0
10.1231,15.0,62.0
10.1289,42.0,62.0
10.1339,-22.0,62.0
10.138,-36.0,62.0
10.143,21.0,62.0
10.1483,30.0,62.0
10.1532,-15.0,62.0
10.1582,-16.0,62.0
10.1631,15.0,60.0
10.168,-12.0,58.0
10.1735,-34.0,58.0
10.1783,40.0,58.0
10.1831,69.0,58.0
10.1882,-47.0,58.0
10.1931,-93.0,58.0
10.1981,30.0,58.0
10.2031,84.0,58.0
10.2082,-3.0,58.0
10.2131,-46.0,60.0
10.2182,-9.0,60.0
10.223,2.0,58.0
10.2281,-3.0,58.0
10.2336,29.0,58.0
10.2382,37.0,58.0
10.2432,-46.0,58.0
10.2481,-74.0,58.0
10.2531,50.0,58.0
10.2583,96.0,60.0
10.2631,-42.0,60.0
10.2683,-93.0,60.0
10.2732,23.0,62.0
10.2783,63.0,62.0
10.283,1.0,62.0
10.2881,-18.0,62.0
10.294,-14.0,60.0
10.2981,-24.0,60.0
10.303,2.0,60.0
10.308,50.0,58.0
10.313,34.0,58.0
10.3189,-52.0,58.0
10.3233,-79.0,58.0
10.3283,25.0,58.0
10.3331,98.0,60.0
10.338,14.0,60.0
10.3433,-74.0,60.0
10.3487,-34.0,60.0
10.3531,31.0,62.0
10.3581,20.0,62.0
10.3631,-4.0,62.0
10.368,10.0,60.0
10.3731,1.0,60.0
10.3783,-34.0,60.0
10.3833,-2.0,58.0
10.3881,51.0,58.0
10.3931,-12.0,58.0
10.3981,-74.0,58.0
10.4031,30.0,58.0
10.4082,109.0,60.0
10.4133,-26.0,60.0
10.4181,-142.0,62.0
10.4231,-13.0,62.0
10.4281,134.0,64.0
10.4331,55.0,64.0
10.4383,-77.0,66.0
10.4431,-50.0,66.0
10.4481,14.0,66.0
10.453,-1.0,64.0
10.458,17.0,64.0
10.4631,60.0,64.0
10.4682,-18.0,64.0
10.4733,-97.0,64.0
10.478,3.0,64.0
10.483,100.0,66.0
10.488,14.0,66.0
10.4935,-74.0,66.0
10.4981,-21.0,66.0
10.5031,41.0,68.0
10.5081,12.0,68.0
10.5132,-17.0,66.0
10.5181,2.0,66.0
10.5231,3.0,66.0
10.5283,-18.0,66.0
10.5332,11.0,66.0
10.5385,37.0,66.0
10.544,-28.0,66.0
10.5482,-63.0,66.0
10.5533,28.0,66.0
10.5582,78.0,66.0
10.5631,-5.0,66.0
10.5681,-66.0,66.0
10.573,-17.0,68.0
10.5781,34.0,68.0
10.5832,19.0,68.0
10.5882,-6.0,68.0
10.5931,-3.0,66.0
10.5981,-8.0,66.0
10.6031,-18.0,66.0
10.6082,18.0,66.0
10.6131,46.0,66.0
10.6182,-25.0,66.0
10.623,-70.0,66.0
10.628,16.0,66.0
10.6331,68.0,66.0
10.6388,3.0,66.0
10.643,-35.0,66.0
10.6481,-8.0,66.0
10.653,-1.0,66.0
10.6581,-2.0,66.0
10.6635,13.0,66.0
10.6682,13.0,66.0
10.6734,-10.0,66.0
10.6781,-16.0,66.0
10.683,14.0,66.0
10.688,23.0,66.0
10.6933,-26.0,66.0
10.6983,-43.0,66.0
10.7031,26.0,66.0
10.7081,57.0,66.0
10.7131,-7.0,66.0
10.7182,-45.0,68.0
10.7232,-11.0,68.0
10.7281,13.0,66.0
10.733,10.0,66.0
10.738,15.0,66.0
10.7438,7.0,66.0
10.7481,-27.0,66.0
10.7531,-25.0,66.0
10.7582,29.0,66.0
10.7631,41.0,66.0
10.7681,-33.0,66.0
10.7731,-61.0,66.0
10.7785,30.0,66.0
10.7831,72.0,68.0
10.7882,-12.0,68.0
10.793,-60.0,68.0
10.798,-5.0,68.0
10.8034,31.0,68.0
10.8081,9.0,68.0
10.8131,-4.0,68.0
10.818,0.0,66.0
10.823,-10.0,66.0
10.8281,-13.0,66.0
10.8332,14.0,64.0
10.8382,27.0,64.0
10.8431,-11.0,64.0
10.8483,-38.0,64.0
10.853,0.0,62.0
10.858,37.0,64.0
10.8661,16.0,64.0
10.8682,-18.0,64.0
10.8739,-24.0,64.0
10.878,-7.0,64.0
10.883,10.0,62.0
10.8889,19.0,62.0
10.8933,15.0,62.0
10.8982,-13.0,60.0
10.9031,-35.0,60.0
10.9081,4.0,58.0
10.9131,42.0,58.0
10.9184,-11.0,58.0
10.9232,-50.0,58.0
10.9281,18.0,58.0
10.9331,55.0,60.0
10.938,-10.0,60.0
10.9434,-40.0,60.0
10.9488,-3.0,58.0
10.9537,6.0,58.0
10.958,1.0,58.0
10.9631,25.0,56.0
10.9681,19.0,56.0
10.9731,-39.0,56.0
10.9784,-45.0,56.0
10.9833,36.0,56.0
10.9882,61.0,56.0
10.9931,-26.0,56.0
10.9981,-59.0,56.0
11.0032,18.0,56.0
11.008,44.0,58.0
11.0132,-15.0,58.0
11.0182,-25.0,58.0
11.0231,15.0,58.0
11.0281,16.0,58.0
11.0333,-17.0,58.0
11.038,-13.0,56.0
11.0432,19.0,56.0
11.048,3.0,54.0
11.053,-28.0,54.0
11.058,19.0,52.0
11.0632,51.0,54.0
11.0692,-40.0,52.0
11.073,-81.0,52.0
11.0781,38.0,52.0
11.083,91.0,52.0
11.088,-14.0,52.0
11.0932,-65.0,54.0
11.0982,-4.0,52.0
11.1031,20.0,52.0
11.108,-3.0,52.0
11.1131,18.0,50.0
11.118,36.0,52.0
11.1231,-34.0,50.0
11.1282,-70.0,52.0
11.133,29.0,50.0
11.138,83.0,52.0
11.1431,-12.0,52.0
11.149,-70.0,52.0
11.1532,-4.0,52.0
11.1581,41.0,52.0
11.163,18.0,52.0
11.168,-10.0,52.0
11.1732,-23.0,52.0
11.1783,-16.0,52.0
11.1832,6.0,52.0
11.1883,40.0,52.0
11.1931,36.0,52.0
11.198,-57.0,52.0
11.2031,-89.0,52.0
11.2081,57.0,52.0
11.2131,125.0,54.0
11.2181,-42.0,54.0
11.2231,-128.0,56.0
11.2281,19.0,56.0
11.233,98.0,58.0
11.238,0.0,58.0
11.2432,-50.0,58.0
11.248,-8.0,58.0
11.2534,5.0,58.0
11.258,-2.0,58.0
11.263,32.0,56.0
11.268,33.0,56.0
11.2732,-58.0,56.0
11.278,-78.0,58.0
11.283,59.0,58.0
11.2881,113.0,60.0
11.2933,-36.0,60.0
11.2982,-115.0,62.0
11.3031,8.0,62.0
11.308,85.0,64.0
11.313,7.0,64.0
11.3182,-41.0,64.0
11.3231,-2.0,64.0
11.3281,5.0,62.0
11.3331,-20.0,62.0
11.3381,15.0,62.0
11.3431,49.0,62.0
11.348,-25.0,62.0
11.3532,-73.0,64.0
11.3583,22.0,62.0
11.363,72.0,64.0
11.3681,-17.0,64.0
11.3734,-45.0,64.0
11.3782,22.0,64.0
11.3832,17.0,64.0
11.3881,-32.0,64.0
11.393,-6.0,64.0
11.398,33.0,64.0
11.403,3.0,64.0
11.4082,-24.0,64.0
11.4132,17.0,64.0
11.4181,31.0,64.0
11.4231,-50.0,62.0
11.428,-65.0,64.0
11.4332,57.0,64.0
11.4381,94.0,66.0
11.4432,-27.0,64.0
11.4481,-84.0,66.0
11.453,-3.0,66.0
11.459,49.0,66.0
11.4633,12.0,66.0
11.468,-23.0,68.0
11.4731,-4.0,66.0
11.4782,13.0,66.0
11.4831,-7.0,66.0
11.4881,-4.0,66.0
11.4932,26.0,66.0
11.4981,-7.0,66.0
11.5031,-49.0,66.0
11.508,11.0,66.0
11.513,58.0,68.0
11.5181,-3.0,66.0
11.523,-45.0,68.0
11.5282,-2.0,68.0
11.5331,22.0,68.0
11.5381,-2.0,68.0
11.5431,-4.0,66.0
11.5484,15.0,66.0
11.5531,-3.0,66.0
11.5583,-29.0,66.0
11.563,10.0,66.0
11.568,45.0,66.0
11.573,-18.0,66.0
11.5782,-64.0,66.0
11.5832,14.0,66.0
11.5881,68.0,68.0
11.593,4.0,68.0
11.5981,-43.0,68.0
11.6033,-16.0,68.0
11.6083,4.0,68.0
11.6132,4.0,66.0
11.6181,19.0,66.0
11.623,19.0,66.0
11.628,-19.0,66.0
11.6331,-36.0,66.0
11.6382,8.0,64.0
11.6431,40.0,66.0
11.6481,-2.0,64.0
11.6531,-36.0,64.0
11.658,1.0,64.0
11.6632,29.0,64.0
11.668,-2.0,64.0
11.6731,-23.0,64.0
11.678,2.0,64.0
11.683,19.0,64.0
11.6881,-2.0,64.0
11.6935,-15.0,64.0
11.6982,2.0,64.0
11.7031,5.0,64.0
11.708,-10.0,62.0
11.713,8.0,62.0
11.718,28.0,62.0
11.7233,-19.0,60.0
11.7282,-47.0,60.0
11.733,16.0,60.0
11.7381,50.0,60.0
11.743,-3.0,60.0
11.7482,-35.0,62.0
11.7532,-5.0,60.0
11.7582,15.0,60.0
11.7631,4.0,60.0
11.768,-4.0,60.0
11.7731,2.0,58.0
11.7783,-3.0,58.0
11.7831,-14.0,58.0
11.7881,18.0,56.0
11.7931,35.0,58.0
11.798,-37.0,58.0
11.8031,-65.0,58.0
11.8082,41.0,58.0
11.8132,81.0,60.0
11.818,-23.0,60.0
11.8233,-66.0,60.0
11.8281,3.0,60.0
11.8332,33.0,60.0
11.838,7.0,58.0
11.8432,-1.0,58.0
11.8481,-8.0,56.0
11.853,-23.0,56.0
11.8581,0.0,54.0
11.8631,42.0,54.0
11.868,25.0,54.0
11.8732,-50.0,52.0
11.8781,-59.0,54.0
11.883,33.0,54.0
11.8882,72.0,54.0
11.8931,0.0,54.0
11.8982,-46.0,54.0
11.9031,-21.0,54.0
11.908,1.0,54.0
11.913,14.0,54.0
11.9181,29.0,52.0
11.9231,8.0,52.0
11.9281,-37.0,50.0
11.9331,-31.0,50.0
11.938,35.0,50.0
11.9432,52.0,50.0
11.9481,-29.0,50.0
11.9531,-66.0,50.0
11.9582,13.0,50.0
11.9631,62.0,50.0
11.9682,4.0,50.0
11.9731,-37.0,50.0
11.9782,-5.0,50.0
11.9831,14.0,50.0
11.9883,-11.0,50.0
11.993,-6.0,48.0
11.998,26.0,48.0
12.0031,5.0,48.0
12.0082,-36.0,48.0
12.0131,1.0,48.0
12.0181,52.0,48.0
12.0231,-8.0,48.0
12.028,-75.0,48.0
12.0333,-2.0,48.0
12.0382,85.0,50.0
12.0432,31.0,50.0
12.0482,-67.0,50.0
12.0531,-55.0,50.0
12.0583,30.0,50.0
12.0631,50.0,50.0
12.0681,5.0,50.0
12.0731,-17.0,50.0
12.0781,-25.0,48.0
12.0831,-26.0,48.0
12.0885,28.0,48.0
12.0934,58.0,48.0
12.0981,-20.0,48.0
12.1031,-71.0,48.0
12.108,6.0,48.0
12.113,63.0,50.0
12.1182,8.0,50.0
12.1232,-44.0,50.0
12.1282,-15.0,50.0
12.1331,26.0,50.0
12.138,18.0,50.0
12.143,-5.0,50.0
12.1483,-15.0,50.0
12.1531,-25.0,48.0
12.1581,-6.0,50.0
12.1631,52.0,50.0
12.168,40.0,50.0
12.1733,-52.0,50.0
12.1781,-63.0,52.0
12.1832,30.0,52.0
12.188,61.0,52.0
12.193,-4.0,52.0
12.198,-36.0,52.0
12.203,-9.0,52.0
12.2081,3.0,52.0
12.2131,2.0,52.0
12.2181,26.0,50.0
12.223,27.0,52.0
12.2281,-39.0,50.0
12.2332,-65.0,52.0
12.2382,27.0,52.0
12.243,87.0,52.0
12.2481,0.0,52.0
12.253,-76.0,54.0
12.2581,-23.0,54.0
12.2634,42.0,54.0
12.2683,29.0,54.0
12.2737,-9.0,54.0
12.2781,-15.0,54.0
12.2832,-6.0,54.0
12.2883,-4.0,54.0
12.2935,8.0,52.0
12.2983,24.0,54.0
12.3035,-9.0,52.0
12.3082,-42.0,54.0
12.3133,13.0,54.0
12.3183,56.0,54.0
12.3235,-14.0,54.0
12.3288,-61.0,56.0
12.3336,8.0,54.0
12.338,51.0,56.0
12.3432,1.0,56.0
12.3484,-30.0,56.0
12.353,-5.0,56.0
12.3582,10.0,56.0
12.3631,2.0,56.0
12.3681,0.0,54.0
12.3731,2.0,54.0
12.3785,-6.0,54.0
12.3844,-10.0,54.0
12.388,16.0,54.0
12.3932,26.0,54.0
12.3982,-18.0,54.0
12.4033,-42.0,54.0
12.4088,8.0,54.0
12.4139,43.0,56.0
12.4185,4.0,56.0
12.423,-29.0,56.0
12.4282,-4.0,56.0
12.4334,12.0,54.0
12.4385,-12.0,54.0
12.4433,0.0,54.0
12.4483,36.0,54.0
12.4532,-6.0,52.0
12.4581,-57.0,52.0
12.4636,10.0,52.0
12.468,64.0,52.0
12.474,-12.0,52.0
12.4781,-57.0,54.0
12.4832,12.0,54.0
12.4882,41.0,54.0
12.4936,-7.0,54.0
12.4987,-26.0,54.0
12.5034,0.0,54.0
12.5082,17.0,54.0
12.513,8.0,52.0
12.5185,-6.0,52.0
12.5236,-7.0,52.0
12.5288,-12.0,50.0
12.5332,-11.0,50.0
12.5382,25.0,50.0
12.5435,38.0,50.0
12.5483,-17.0,50.0
12.5531,-53.0,52.0
12.559,-2.0,52.0
12.5632,49.0,52.0
12.5681,16.0,52.0
12.5732,-36.0,52.0
12.5782,-18.0,52.0
12.583,16.0,50.0
12.588,6.0,50.0
12.5931,11.0,50.0
12.5982,23.0,50.0
12.6035,-40.0,50.0
12.6081,-66.0,50.0
12.6137,48.0,50.0
12.618,96.0,52.0
12.6232,-30.0,52.0
12.6285,-93.0,54.0
12.6333,7.0,54.0
12.6385,68.0,54.0
12.6435,6.0,54.0
12.6483,-38.0,54.0
12.6533,-7.0,54.0
12.658,12.0,54.0
12.6634,-5.0,54.0
12.6685,11.0,52.0
12.6733,34.0,52.0
12.678,-29.0,52.0
12.6832,-71.0,52.0
12.6891,26.0,52.0
12.694,90.0,52.0
12.6985,-3.0,52.0
12.7032,-77.0,52.0
12.7082,-14.0,52.0
12.7132,45.0,54.0
12.7184,11.0,52.0
12.7235,-18.0,52.0
12.7286,5.0,52.0
12.7336,2.0,52.0
12.7382,-28.0,52.0
12.7432,17.0,50.0
12.7484,66.0,52.0
12.7534,-34.0,52.0
12.758,-113.0,54.0
12.763,20.0,52.0
12.7682,129.0,54.0
12.7733,19.0,54.0
12.7786,-90.0,56.0
12.7835,-40.0,56.0
12.7885,29.0,56.0
12.7932,21.0,56.0
12.7985,6.0,56.0
12.8032,19.0,56.0
12.8084,-7.0,56.0
12.8132,-56.0,56.0
12.8185,-2.0,54.0
12.8232,88.0,56.0
12.8282,2.0,54.0
12.8334,-111.0,56.0
12.8391,5.0,56.0
12.8437,120.0,58.0
12.8482,-15.0,58.0
12.8533,-114.0,60.0
12.8582,6.0,58.0
12.8676,79.0,60.0
12.868,19.0,60.0
12.8732,-6.0,58.0
12.8783,-17.0,58.0
12.8832,-66.0,58.0
12.8884,-34.0,58.0
12.8934,79.0,58.0
12.8991,91.0,60.0
12.903,-40.0,60.0
12.9082,-105.0,60.0
12.9132,-2.0,60.0
12.9185,81.0,62.0
12.9233,29.0,62.0
12.9286,-44.0,62.0
12.9332,-39.0,64.0
12.9382,14.0,62.0
12.9432,22.0,64.0
12.9484,-12.0,62.0
12.9532,11.0,62.0
12.9588,36.0,62.0
12.9632,-36.0,62.0
12.968,-48.0,62.0
12.9732,49.0,64.0
12.9785,26.0,62.0
12.9835,-68.0,64.0
12.9885,5.0,64.0
12.9931,91.0,64.0
12.9992,-16.0,64.0
13.0035,-94.0,66.0
13.008,7.0,66.0
13.0135,71.0,68.0
13.0182,0.0,68.0
13.0231,-40.0,68.0
13.028,1.0,68.0
13.0333,9.0,68.0
13.038,-6.0,68.0
13.0435,31.0,66.0
13.0484,27.0,68.0
13.0531,-71.0,68.0
13.0584,-70.0,68.0
13.0634,69.0,70.0
13.068,103.0,70.0
13.0731,-29.0,72.0
13.0782,-103.0,72.0
13.0832,-16.0,72.0
13.0884,76.0,74.0
13.0936,43.0,74.0
13.098,-36.0,74.0
13.1037,-36.0,74.0
13.1085,-3.0,74.0
13.1135,-1.0,72.0
13.1183,30.0,72.0
13.123,55.0,74.0
13.1285,-38.0,74.0
13.1332,-106.0,74.0
13.1381,17.0,74.0
13.143,128.0,76.0
13.1483,23.0,76.0
13.1533,-101.0,78.0
13.1585,-47.0,78.0
13.1638,43.0,80.0
13.1682,21.0,80.0
13.1732,0.0,80.0
13.1786,40.0,80.0
13.183,0.0,78.0
13.1887,-84.0,80.0
13.1933,-19.0,80.0
13.1985,78.0,80.0
13.2038,6.0,80.0
13.2087,-59.0,80.0
13.2137,27.0,80.0
13.2191,64.0,82.0
13.2232,-33.0,82.0
13.2282,-71.0,82.0
13.2333,5.0,82.0
13.2385,51.0,82.0
13.243,10.0,82.0
13.2482,-13.0,82.0
13.2532,10.0,80.0
13.2585,-13.0,80.0
13.2635,-53.0,80.0
13.2682,18.0,78.0
13.2731,89.0,80.0
13.278,-9.0,80.0
13.283,-99.0,80.0
13.288,-7.0,80.0
13.2932,78.0,82.0
13.2982,18.0,82.0
13.303,-37.0,82.0
13.308,-12.0,82.0
13.313,1.0,82.0
13.3182,-2.0,80.0
13.3231,19.0,80.0
13.3281,16.0,80.0
13.3331,-32.0,80.0
13.338,-32.0,80.0
13.343,39.0,78.0
13.3484,53.0,80.0
13.3532,-33.0,80.0
13.3582,-67.0,80.0
13.363,14.0,80.0
13.368,60.0,80.0
13.3731,3.0,80.0
13.3781,-36.0,82.0
13.3831,-5.0,80.0
13.388,14.0,80.0
13.393,-4.0,80.0
13.398,-7.0,78.0
13.4035,13.0,78.0
13.4088,1.0,76.0
13.4132,-20.0,76.0
13.418,16.0,74.0
13.423,46.0,74.0
13.428,-28.0,74.0
13.4331,-88.0,76.0
13.4382,10.0,76.0
13.4432,103.0,78.0
13.448,16.0,78.0
13.453,-75.0,78.0
13.458,-12.0,78.0
13.4631,46.0,78.0
13.4683,-14.0,78.0
13.4731,-38.0,76.0
13.4781,25.0,76.0
13.4831,21.0,74.0
13.488,-25.0,76.0
13.493,21.0,74.0
13.4982,47.0,74.0
13.504,-60.0,74.0
13.5081,-97.0,76.0
13.5132,49.0,76.0
13.5183,128.0,78.0
13.5231,3.0,76.0
13.5282,-102.0,78.0
13.5332,-38.0,78.0
13.538,40.0,76.0
13.5432,19.0,76.0
13.548,16.0,74.0
13.5532,39.0,76.0
13.5582,-49.0,74.0
13.5631,-101.0,76.0
13.568,57.0,76.0
13.5731,141.0,78.0
13.5782,-47.0,78.0
13.5831,-144.0,80.0
13.5882,25.0,80.0
13.593,109.0,82.0
13.598,-7.0,82.0
13.6033,-53.0,82.0
13.6084,10.0,80.0
13.613,7.0,80.0
13.6181,-26.0,80.0
13.623,33.0,80.0
13.6281,57.0,80.0
13.633,-75.0,80.0
13.6382,-116.0,82.0
13.6431,85.0,82.0
13.648,175.0,84.0
13.6531,-42.0,84.0
13.6582,-184.0,86.0
13.6632,-14.0,86.0
13.6682,131.0,88.0
13.6731,34.0,88.0
13.6781,-63.0,90.0
13.683,-7.0,90.0
13.6881,22.0,90.0
13.6933,-38.0,88.0
13.6981,6.0,88.0
13.7031,92.0,88.0
13.7086,-42.0,88.0
13.7137,-150.0,90.0
13.7184,55.0,88.0
13.723,181.0,90.0
13.7282,-28.0,90.0
13.733,-158.0,92.0
13.738,-7.0,92.0
13.743,101.0,92.0
13.7482,25.0,92.0
13.7531,-47.0,94.0
13.7582,-26.0,94.0
13.7629,11.0,92.0
13.768,15.0,92.0
13.7732,25.0,92.0
13.7783,27.0,92.0
13.7832,-58.0,90.0
13.7882,-100.0,92.0
13.7931,50.0,90.0
13.7987,148.0,92.0
13.803,-8.0,92.0
13.8083,-131.0,94.0
13.8131,-20.0,94.0
13.818,77.0,94.0
13.8231,15.0,94.0
13.8282,-33.0,94.0
13.8334,2.0,94.0
13.8379,6.0,92.0
13.8431,-25.0,92.0
13.848,31.0,92.0
13.853,68.0,92.0
13.858,-72.0,92.0
13.8632,-128.0,94.0
13.8682,72.0,94.0
13.8731,158.0,96.0
13.8781,-28.0,96.0
13.883,-122.0,98.0
13.8882,-1.0,98.0
13.893,60.0,98.0
13.8981,-11.0,98.0
13.903,-29.0,98.0
13.908,32.0,98.0
13.9138,27.0,98.0
13.9186,-33.0,98.0
13.9231,-10.0,96.0
13.9281,35.0,98.0
13.9331,-31.0,96.0
13.9382,-65.0,98.0
13.943,53.0,98.0
13.9481,100.0,98.0
13.9531,-23.0,100.0
13.9582,-94.0,100.0
13.963,-18.0,100.0
13.968,47.0,100.0
13.9731,24.0,100.0
13.9786,-2.0,100.0
13.9832,-1.0,100.0
13.9881,-18.0,100.0
13.9931,-22.0,100.0
13.9981,42.0,98.0
14.0034,50.0,100.0
14.0082,-75.0,100.0
14.0132,-96.0,100.0
14.0185,73.0,102.0
14.023,126.0,104.0
14.028,-22.0,104.0
14.0332,-93.0,104.0
14.0381,-25.0,106.0
14.0431,18.0,106.0
14.0481,26.0,106.0
14.053,40.0,106.0
14.0581,0.0,106.0
14.0631,-60.0,106.0
14.0682,-27.0,106.0
14.0732,67.0,106.0
14.0782,56.0,106.0
14.083,-73.0,106.0
14.0882,-95.0,108.0
14.0934,57.0,106.0
14.0981,117.0,108.0
14.103,-14.0,108.0
14.108,-94.0,110.0
14.1131,-22.0,108.0
14.1188,43.0,110.0
14.123,25.0,110.0
14.128,0.0,108.0
14.1341,1.0,108.0
14.1381,-24.0,108.0
14.1431,-41.0,108.0
14.1482,42.0,108.0
14.1532,92.0,108.0
14.1582,-61.0,106.0
14.163,-145.0,108.0
14.168,53.0,108.0
14.1731,163.0,110.0
14.1786,-17.0,110.0
14.1832,-122.0,112.0
14.188,-5.0,112.0
14.193,56.0,112.0
14.198,-5.0,110.0
14.2031,-11.0,110.0
14.2081,31.0,108.0
14.2131,-18.0,106.0
14.2181,-60.0,108.0
14.2231,53.0,106.0
14.228,110.0,108.0
14.2331,-75.0,106.0
14.2382,-165.0,110.0
14.2431,49.0,108.0
14.248,169.0,112.0
14.253,1.0,112.0
14.2583,-104.0,112.0
14.2633,-17.0,112.0
14.2681,29.0,112.0
14.2732,-12.0,110.0
14.2781,11.0,110.0
14.283,53.0,108.0
14.2881,-24.0,106.0
14.2932,-84.0,108.0
14.2981,37.0,104.0
14.3031,112.0,106.0
14.3083,-56.0,106.0
14.3131,-141.0,106.0
14.3179,56.0,106.0
14.3231,144.0,108.0
14.3282,-31.0,108.0
14.3331,-102.0,110.0
14.3381,17.0,110.0
14.343,39.0,110.0
14.3481,-36.0,110.0
14.3531,8.0,108.0
14.3582,73.0,108.0
14.363,-32.0,104.0
14.368,-104.0,106.0
14.3731,47.0,104.0
14.3781,125.0,106.0
14.383,-59.0,106.0
14.3881,-140.0,108.0
14.393,53.0,108.0
14.3981,136.0,110.0
14.403,-24.0,110.0
14.4084,-98.0,110.0
14.4131,0.0,110.0
14.4181,41.0,110.0
14.4232,-6.0,110.0
14.428,18.0,108.0
14.4331,49.0,108.0
14.438,-64.0,108.0
14.4431,-114.0,108.0
14.448,81.0,108.0
14.4531,168.0,110.0
14.4582,-67.0,110.0
14.4634,-185.0,112.0
14.4681,30.0,112.0
14.4732,158.0,116.0
14.478,11.0,116.0
14.4831,-99.0,116.0
14.4882,-31.0,116.0
14.4933,33.0,116.0
14.498,12.0,114.0
14.5031,25.0,114.0
14.5083,48.0,112.0
14.513,-61.0,112.0
14.5183,-128.0,114.0
14.5232,65.0,112.0
14.528,181.0,114.0
14.5331,-51.0,114.0
14.5393,-189.0,118.0
14.5431,30.0,118.0
14.5482,154.0,120.0
14.5532,0.0,120.0
14.5582,-89.0,120.0
14.5631,-25.0,120.0
14.5682,12.0,120.0
14.5731,15.0,120.0
14.5783,56.0,120.0
14.5833,43.0,120.0
14.5881,-100.0,120.0
14.5932,-125.0,120.0
14.5981,104.0,122.0
14.6033,181.0,124.0
14.6082,-82.0,124.0
14.6131,-193.0,126.0
14.6181,49.0,128.0
14.623,174.0,130.0
14.628,-9.0,130.0
14.6332,-134.0,132.0
14.6392,-31.0,132.0
14.643,63.0,132.0
14.6481,43.0,132.0
14.653,49.0,130.0
14.6582,22.0,130.0
14.6633,-150.0,130.0
14.6683,-151.0,132.0
14.6732,155.0,134.0
14.6781,243.0,136.0
14.6831,-75.0,138.0
14.6882,-227.0,140.0
14.6934,-3.0,140.0
14.6982,133.0,142.0
14.703,22.0,142.0
14.7082,-38.0,142.0
14.7131,8.0,140.0
14.7182,-14.0,140.0
14.7231,-53.0,140.0
14.728,51.0,140.0
14.733,111.0,140.0
14.738,-90.0,140.0
14.743,-189.0,142.0
14.748,93.0,142.0
14.7533,240.0,146.0
14.7582,-44.0,146.0
14.763,-213.0,148.0
14.768,-12.0,148.0
14.7731,124.0,150.0
14.7785,27.0,150.0
14.7831,-35.0,150.0
14.7881,-2.0,150.0
14.793,-17.0,148.0
14.798,-42.0,148.0
14.8031,55.0,148.0
14.8082,105.0,148.0
14.8131,-89.0,146.0
14.8181,-184.0,150.0
14.8232,87.0,148.0
14.828,231.0,152.0
14.8331,-40.0,152.0
14.8381,-202.0,156.0
14.843,-7.0,156.0
14.848,117.0,156.0
14.853,20.0,156.0
14.8582,-31.0,156.0
14.8631,2.0,156.0
14.8683,-16.0,154.0
14.8733,-38.0,154.0
14.8781,41.0,152.0
14.883,81.0,152.0
14.888,-63.0,150.0
14.8934,-133.0,152.0
14.8982,65.0,152.0
14.9031,165.0,154.0
14.908,-36.0,154.0
14.913,-153.0,156.0
14.9181,4.0,156.0
14.923,111.0,158.0
14.928,6.0,156.0
14.9331,-71.0,156.0
14.9381,4.0,156.0
14.943,36.0,154.0
14.9484,-28.0,154.0
14.953,14.0,152.0
14.9581,78.0,152.0
14.963,-72.0,152.0
14.968,-149.0,154.0
14.9731,85.0,154.0
14.9783,185.0,156.0
14.9832,-38.0,156.0
14.9881,-145.0,158.0
14.993,-9.0,158.0
14.998,61.0,158.0
15.0032,15.0,158.0
15.008,0.0,156.0
15.0132,5.0,154.0
15.0182,-25.0,154.0
15.0232,-32.0,152.0
15.028,49.0,152.0
15.0331,75.0,152.0
15.0382,-80.0,150.0
15.0432,-140.0,152.0
15.0482,70.0,152.0
15.053,175.0,154.0
15.0581,-8.0,154.0
15.0631,-134.0,156.0
15.0691,-39.0,156.0
15.073,51.0,156.0
15.0781,28.0,156.0
15.083,8.0,154.0
15.0881,22.0,154.0
15.0935,-27.0,152.0
15.098,-73.0,152.0
15.103,37.0,150.0
15.108,120.0,150.0
15.113,-54.0,150.0
15.1182,-166.0,152.0
15.1231,47.0,150.0
15.1281,175.0,152.0
15.1331,-14.0,152.0
15.138,-126.0,154.0
15.143,-3.0,154.0
15.149,56.0,154.0
15.1531,-12.0,154.0
15.1582,-17.0,152.0
15.163,40.0,152.0
15.168,8.0,148.0
15.173,-65.0,148.0
15.1782,6.0,146.0
15.1832,99.0,148.0
15.188,-38.0,146.0
15.193,-147.0,148.0
15.198,49.0,146.0
15.203,173.0,150.0
15.2081,-24.0,150.0
15.2133,-145.0,152.0
15.2181,-3.0,150.0
15.2231,82.0,152.0
15.228,2.0,150.0
15.2333,-29.0,148.0
15.238,20.0,146.0
15.2431,0.0,144.0
15.2481,-53.0,144.0
15.2539,33.0,142.0
15.258,104.0,142.0
15.2633,-68.0,140.0
15.2683,-170.0,142.0
15.2731,63.0,142.0
15.278,201.0,144.0
15.283,-11.0,144.0
15.2881,-159.0,146.0
15.2934,-34.0,146.0
15.2982,76.0,146.0
15.303,34.0,144.0
15.308,-7.0,142.0
15.313,1.0,140.0
15.318,-28.0,136.0
15.3231,-50.0,136.0
15.3281,56.0,134.0
15.333,111.0,134.0
15.3381,-81.0,134.0
15.3431,-178.0,136.0
15.348,63.0,136.0
15.3531,203.0,140.0
15.3581,-3.0,140.0
15.363,-153.0,142.0
15.368,-34.0,140.0
15.3731,71.0,140.0
15.3782,17.0,140.0
15.3833,-18.0,136.0
15.3881,25.0,136.0
15.393,-7.0,132.0
15.398,-71.0,132.0
15.4031,48.0,130.0
15.4081,139.0,132.0
15.4131,-96.0,132.0
15.4182,-227.0,134.0
15.4232,83.0,136.0
15.428,259.0,140.0
15.4331,-6.0,138.0
15.438,-183.0,142.0
15.4432,-44.0,140.0
15.448,60.0,140.0
15.453,18.0,140.0
15.458,18.0,136.0
15.4631,46.0,136.0
15.4682,-38.0,132.0
15.4733,-101.0,134.0
15.4782,56.0,132.0
15.4837,152.0,134.0
15.488,-94.0,134.0
15.4933,-214.0,136.0
15.4981,93.0,138.0
15.5031,239.0,142.0
15.508,-31.0,142.0
15.5134,-181.0,144.0
15.5182,-20.0,144.0
15.5231,84.0,144.0
15.5281,12.0,142.0
15.533,-18.0,140.0
15.538,31.0,140.0
15.543,-9.0,138.0
15.5481,-79.0,138.0
15.5547,35.0,136.0
15.558,132.0,138.0
15.563,-70.0,138.0
15.568,-184.0,140.0
15.5732,78.0,140.0
15.5783,196.0,144.0
15.5832,-51.0,144.0
15.5882,-154.0,146.0
15.593,20.0,146.0
15.598,90.0,146.0
15.6031,-6.0,146.0
15.6083,-27.0,144.0
15.613,22.0,142.0
15.6181,-28.0,140.0
15.623,-84.0,140.0
15.628,79.0,140.0
15.6331,198.0,142.0
15.6382,-102.0,144.0
15.6431,-326.0,148.0
15.648,41.0,148.0
15.653,369.0,154.0
15.6584,90.0,156.0
15.6634,-262.0,160.0
15.6681,-166.0,160.0
15.6732,88.0,162.0
15.6781,107.0,162.0
15.683,16.0,160.0
15.6885,20.0,158.0
15.6931,-26.0,156.0
15.6981,-117.0,158.0
15.703,15.0,156.0
15.708,178.0,158.0
15.713,-24.0,158.0
15.718,-239.0,162.0
15.7232,1.0,162.0
15.7282,272.0,166.0
15.733,74.0,166.0
15.7381,-216.0,168.0
15.743,-120.0,170.0
15.7481,104.0,170.0
15.7531,75.0,170.0
15.7581,-36.0,168.0
15.7633,5.0,166.0
15.7683,40.0,164.0
15.7731,-42.0,166.0
15.7784,-50.0,164.0
15.783,39.0,164.0
15.788,22.0,164.0
15.7931,-48.0,164.0
15.798,7.0,164.0
15.8033,63.0,164.0
15.8083,-5.0,164.0
15.8131,-46.0,164.0
15.818,0.0,164.0
15.823,3.0,162.0
15.8281,-23.0,162.0
15.8332,23.0,160.0
15.8382,64.0,160.0
15.8431,-19.0,158.0
15.8482,-87.0,160.0
15.8533,9.0,158.0
15.858,82.0,158.0
15.8631,-16.0,158.0
15.868,-73.0,158.0
15.873,23.0,158.0
15.8782,74.0,160.0
15.8834,-2.0,160.0
15.888,-61.0,160.0
15.8932,-37.0,160.0
15.8981,20.0,158.0
15.903,51.0,158.0
15.908,21.0,156.0
15.913,-16.0,154.0
15.918,-30.0,152.0
15.9232,-38.0,152.0
15.928,8.0,150.0
15.933,70.0,150.0
15.9381,13.0,150.0
15.9432,-72.0,150.0
15.948,-17.0,150.0
15.9532,58.0,152.0
15.958,10.0,152.0
15.964,-38.0,152.0
15.968,-3.0,150.0
15.973,18.0,148.0
15.978,1.0,148.0
15.9832,7.0,144.0
15.988,0.0,144.0
15.993,-43.0,142.0
15.998,-19.0,142.0
16.0031,79.0,140.0
16.0081,58.0,140.0
16.0133,-87.0,142.0
16.0182,-92.0,142.0
16.023,56.0,142.0
16.0279,89.0,144.0
16.0332,-15.0,144.0
16.0382,-52.0,144.0
16.0431,-3.0,144.0
16.048,9.0,140.0
16.053,-2.0,140.0
16.0581,20.0,136.0
16.0637,26.0,136.0
16.0684,-34.0,132.0
16.0739,-53.0,132.0
16.0781,25.0,130.0
16.083,63.0,130.0
16.089,-2.0,130.0
16.0933,-47.0,130.0
16.098,-15.0,130.0
16.103,23.0,130.0
16.1079,22.0,130.0
16.113,-5.0,128.0
16.118,-23.0,128.0
16.1233,-10.0,126.0
16.1281,13.0,124.0
16.133,33.0,120.0
16.1382,16.0,120.0
16.143,-47.0,116.0
16.1481,-55.0,118.0
16.1531,24.0,114.0
16.158,64.0,116.0
16.1632,19.0,114.0
16.1685,-34.0,114.0
16.1732,-33.0,114.0
16.1781,6.0,114.0
16.183,20.0,114.0
16.188,-6.0,114.0
16.193,-28.0,114.0
16.198,1.0,112.0
16.2031,61.0,112.0
16.2083,47.0,110.0
16.2131,-60.0,108.0
16.2182,-113.0,108.0
16.223,0.0,106.0
16.228,134.0,106.0
16.2331,86.0,108.0
16.2381,-96.0,108.0
16.243,-144.0,110.0
16.248,31.0,110.0
16.253,146.0,112.0
16.258,30.0,112.0
16.2631,-94.0,112.0
16.2682,-59.0,112.0
16.273,20.0,108.0
16.278,32.0,108.0
16.283,19.0,102.0
16.2882,46.0,104.0
16.2933,7.0,98.0
16.298,-114.0,98.0
16.303,-90.0,96.0
16.3079,101.0,94.0
16.313,157.0,96.0
16.3181,-19.0,94.0
16.3232,-155.0,96.0
16.3282,-44.0,96.0
16.333,125.0,98.0
16.338,59.0,96.0
16.3431,-124.0,98.0
16.3482,-87.0,98.0
16.3532,121.0,98.0
16.3581,142.0,98.0
16.363,-59.0,98.0
16.3681,-151.0,96.0
16.3736,-32.0,96.0
16.378,83.0,94.0
16.3831,83.0,92.0
16.388,-1.0,92.0
16.393,-80.0,92.0
16.398,-40.0,92.0
16.403,57.0,92.0
16.408,53.0,92.0
16.4132,-35.0,92.0
16.4181,-60.0,92.0
16.423,13.0,92.0
16.428,48.0,92.0
16.4331,2.0,92.0
16.4381,-4.0,92.0
16.443,2.0,90.0
16.448,-45.0,92.0
16.453,-23.0,92.0
16.458,65.0,92.0
16.463,39.0,92.0
16.468,-49.0,94.0
16.4735,-47.0,94.0
16.4784,14.0,92.0
16.483,56.0,94.0
16.488,27.0,92.0
16.4933,-63.0,94.0
16.4982,-61.0,92.0
16.503,58.0,94.0
16.508,72.0,94.0
16.513,-38.0,94.0
16.518,-57.0,94.0
16.5231,8.0,94.0
16.5281,22.0,92.0
16.5329,20.0,92.0
16.538,11.0,92.0
16.5432,-36.0,92.0
16.5481,-26.0,92.0
16.5531,41.0,92.0
16.558,23.0,92.0
16.563,-37.0,92.0
16.568,-11.0,92.0
16.573,25.0,92.0
16.5783,-6.0,92.0
16.5832,-10.0,90.0
16.588,31.0,92.0
16.593,0.0,90.0
16.598,-50.0,90.0
16.6032,0.0,90.0
16.6082,46.0,90.0
16.6131,0.0,90.0
16.6182,-25.0,90.0
16.6229,10.0,92.0
16.6279,13.0,92.0
16.6331,-22.0,90.0
16.6381,-18.0,90.0
16.643,19.0,90.0
16.6479,20.0,90.0
16.6529,-4.0,88.0
16.6581,0.0,86.0
16.6631,4.0,86.0
16.6682,-30.0,84.0
16.673,-28.0,86.0
16.6787,33.0,84.0
16.683,50.0,86.0
16.688,-7.0,86.0
16.6931,-43.0,86.0
16.6982,-15.0,86.0
16.703,20.0,86.0
16.708,14.0,86.0
16.713,-5.0,84.0
16.7179,0.0,84.0
16.7229,4.0,84.0
16.728,-8.0,84.0
16.733,-2.0,82.0
16.7381,9.0,82.0
16.7433,-6.0,82.0
16.7485,-7.0,82.0
16.7532,18.0,82.0
16.7585,12.0,82.0
16.7632,-23.0,82.0
16.7682,-33.0,82.0
16.7733,8.0,82.0
16.7781,66.0,84.0
16.783,31.0,84.0
16.7887,-86.0,84.0
16.7929,-68.0,84.0
16.7981,80.0,84.0
16.8038,58.0,86.0
16.8088,-50.0,86.0
16.8136,24.0,86.0
16.8185,30.0,86.0
16.8232,-142.0,88.0
16.8283,-70.0,88.0
16.8332,190.0,92.0
16.8385,134.0,94.0
16.8435,-126.0,94.0
16.8482,-128.0,96.0
16.853,37.0,96.0
16.858,51.0,94.0
16.8636,-9.0,94.0
16.8696,23.0,92.0
16.874,29.0,92.0
16.8783,-67.0,92.0
16.8832,-50.0,90.0
16.888,89.0,90.0
16.8931,53.0,90.0
16.8996,-88.0,90.0
16.9029,-40.0,90.0
16.9081,67.0,90.0
16.9131,13.0,90.0
16.9182,-37.0,90.0
16.9235,23.0,90.0
16.9279,12.0,88.0
16.933,-62.0,90.0
16.9381,-4.0,88.0
16.9433,70.0,88.0
16.9489,1.0,86.0
16.9529,-29.0,84.0
16.9586,22.0,84.0
16.963,-12.0,82.0
16.9681,-58.0,82.0
16.9732,7.0,80.0
16.9785,64.0,80.0
16.983,29.0,78.0
16.988,-29.0,78.0
16.9929,-48.0,76.0
16.9982,-2.0,74.0
17.0029,25.0,74.0
17.0079,-6.0,72.0
17.0135,13.0,72.0
17.0187,40.0,70.0
17.0232,-29.0,70.0
17.0282,-61.0,70.0
17.0333,19.0,70.0
17.038,54.0,70.0
17.0434,1.0,70.0
17.0482,-31.0,68.0
17.0544,-21.0,68.0
17.0582,6.0,68.0
17.0634,29.0,68.0
17.0683,12.0,68.0
17.0737,-18.0,68.0
17.0783,-20.0,68.0
17.0831,0.0,68.0
17.0883,17.0,68.0
17.0937,17.0,68.0
17.098,-8.0,66.0
17.1031,-32.0,66.0
17.1079,4.0,66.0
17.1132,46.0,66.0
17.1184,-3.0,66.0
17.1235,-57.0,66.0
17.1279,0.0,66.0
17.133,58.0,66.0
17.1381,5.0,64.0
17.1433,-45.0,64.0
17.1479,-6.0,64.0
17.153,22.0,62.0
17.1581,-9.0,62.0
17.163,0.0,62.0
17.1684,39.0,62.0
17.1732,-10.0,62.0
17.1789,-71.0,62.0
17.1829,5.0,62.0
17.188,83.0,64.0
17.1929,9.0,62.0
17.198,-66.0,64.0
17.2036,-19.0,64.0
17.2079,27.0,64.0
17.2136,13.0,64.0
17.2184,5.0,64.0
17.2232,7.0,64.0
17.2281,-8.0,62.0
17.2332,-22.0,64.0
17.2379,-7.0,62.0
17.2431,17.0,62.0
17.248,12.0,62.0
17.253,-7.0,62.0
17.2582,4.0,62.0
17.2634,14.0,62.0
17.268,-25.0,62.0
17.2736,-36.0,62.0
17.2785,29.0,62.0
17.2831,50.0,64.0
17.2882,-21.0,64.0
17.2931,-47.0,64.0
17.298,13.0,64.0
17.3041,32.0,64.0
17.3079,-11.0,64.0
17.3132,-14.0,64.0
17.3184,20.0,64.0
17.323,0.0,64.0
17.3284,-35.0,64.0
17.3331,1.0,62.0
17.3379,41.0,64.0
17.3432,2.0,62.0
17.3482,-28.0,64.0
17.3529,-6.0,64.0
17.3585,6.0,64.0
17.363,13.0,64.0
17.3681,7.0,64.0
17.3733,-23.0,64.0
17.3787,-7.0,64.0
17.3831,27.0,64.0
17.388,7.0,64.0
17.393,-7.0,64.0
17.3981,-16.0,64.0
17.4033,-38.0,64.0
17.4083,20.0,64.0
17.4135,93.0,66.0
17.4182,-5.0,64.0
17.4229,-140.0,66.0
17.4282,-39.0,66.0
17.4333,147.0,66.0
17.4385,106.0,66.0
17.4429,-87.0,68.0
17.4479,-145.0,68.0
17.4532,-15.0,68.0
17.4583,120.0,70.0
17.4638,110.0,70.0
17.4679,-49.0,70.0
17.4735,-167.0,68.0
17.4784,-26.0,68.0
17.4831,160.0,68.0
17.4882,63.0,66.0
17.4936,-84.0,68.0
17.4979,-34.0,68.0
17.503,-13.0,68.0
17.508,-41.0,68.0
17.5136,72.0,68.0
17.5181,123.0,70.0
17.5236,-88.0,70.0
17.528,-188.0,72.0
17.5329,87.0,72.0
17.5382,226.0,74.0
17.5432,-76.0,74.0
17.549,-213.0,76.0
17.5529,62.0,78.0
17.5585,135.0,80.0
17.5632,-72.0,80.0
17.5679,-43.0,80.0
17.5732,91.0,80.0
17.5785,6.0,80.0
17.5834,-67.0,80.0
17.5892,-24.0,82.0
17.5931,-10.0,80.0
17.5982,32.0,82.0
17.6029,68.0,82.0
17.6083,-3.0,82.0
17.613,-39.0,82.0
17.6179,-8.0,80.0
17.6232,-35.0,80.0
17.6282,-36.0,80.0
17.6332,56.0,80.0
17.638,92.0,82.0
17.6435,-8.0,82.0
17.6483,-100.0,84.0
17.6531,-38.0,84.0
17.6582,73.0,84.0
17.6634,42.0,84.0
17.668,-50.0,84.0
17.6735,-26.0,84.0
17.6784,35.0,84.0
17.6831,12.0,84.0
17.6882,-14.0,84.0
17.694,6.0,84.0
17.698,-10.0,84.0
17.7031,-38.0,84.0
17.7081,18.0,84.0
17.713,65.0,86.0
17.7183,-1.0,84.0
17.7235,-63.0,86.0
17.728,-21.0,86.0
17.733,31.0,86.0
17.7379,26.0,86.0
17.7431,6.0,86.0
17.7481,-7.0,86.0
17.7531,-32.0,86.0
17.7581,-23.0,86.0
17.763,51.0,86.0
17.768,54.0,86.0
17.7729,-70.0,86.0
17.778,-79.0,88.0
17.783,73.0,88.0
17.788,85.0,90.0
17.7929,-47.0,90.0
17.798,-63.0,92.0
17.8031,16.0,92.0
17.808,23.0,92.0
17.8134,-7.0,90.0
17.8183,3.0,90.0
17.8229,16.0,90.0
17.828,-4.0,88.0
17.8332,-22.0,90.0
17.8381,-3.0,88.0
17.8432,23.0,88.0
17.848,2.0,88.0
17.853,-25.0,88.0
17.858,2.0,88.0
17.863,27.0,88.0
17.8681,-5.0,88.0
17.8731,-23.0,88.0
17.8779,7.0,88.0
17.8829,14.0,88.0
17.888,-8.0,88.0
17.8932,-4.0,88.0
17.898,7.0,88.0
17.903,-5.0,88.0
17.9081,-7.0,88.0
17.9129,15.0,88.0
17.918,9.0,88.0
17.923,-23.0,86.0
17.9281,-14.0,86.0
17.9329,24.0,86.0
17.9379,19.0,86.0
17.943,-17.0,86.0
17.9482,-18.0,86.0
17.9532,11.0,86.0
17.9582,13.0,86.0
17.963,-9.0,86.0
17.9679,-7.0,86.0
17.973,9.0,86.0
17.9781,0.0,86.0
17.9831,-12.0,86.0
17.988,9.0,84.0
17.993,20.0,86.0
17.9979,-18.0,86.0
18.0031,-33.0,86.0
18.008,17.0,86.0
18.0141,42.0,86.0
18.018,-9.0,86.0
18.023,-38.0,86.0
18.0289,8.0,86.0
18.0333,27.0,86.0
18.038,-18.0,86.0
18.043,-21.0,86.0
18.048,30.0,86.0
18.0529,15.0,86.0
18.058,-42.0,86.0
18.0631,-3.0,84.0
18.0681,58.0,84.0
18.0729,-3.0,82.0
18.078,-73.0,82.0
18.0829,-5.0,80.0
18.088,71.0,78.0
18.0932,23.0,80.0
18.098,-50.0,78.0
18.103,-36.0,76.0
18.108,15.0,76.0
18.113,39.0,74.0
18.118,31.0,74.0
18.1231,-16.0,72.0
18.1289,-81.0,72.0
18.1337,-48.0,72.0
18.1381,92.0,72.0
18.143,123.0,74.0
18.1481,-50.0,74.0
18.1533,-146.0,76.0
18.1581,4.0,74.0
18.163,100.0,74.0
18.1679,-5.0,72.0
18.173,-48.0,70.0
18.1781,5.0,68.0
18.1831,36.0,66.0
18.188,63.0,64.0
18.1932,-9.0,64.0
18.198,-147.0,64.0
18.2031,-73.0,64.0
18.2082,129.0,64.0
18.2131,154.0,66.0
18.2191,1.0,66.0
18.223,-150.0,68.0
18.228,-154.0,70.0
18.2331,48.0,70.0
18.2381,222.0,72.0
18.243,79.0,72.0
18.248,-146.0,76.0
18.253,-117.0,76.0
18.2581,-8.0,76.0
18.263,31.0,76.0
18.2682,106.0,78.0
18.2731,78.0,78.0
18.2782,-98.0,78.0
18.283,-108.0,80.0
18.288,52.0,78.0
18.2933,61.0,78.0
18.298,-29.0,78.0
18.3031,-2.0,78.0
18.3081,20.0,78.0
18.3129,-28.0,78.0
18.3189,1.0,76.0
18.3231,29.0,76.0
18.3281,-25.0,78.0
18.333,-7.0,78.0
18.338,28.0,78.0
18.343,-25.0,78.0
18.3487,-12.0,78.0
18.3531,49.0,76.0
18.3582,-3.0,76.0
18.363,-43.0,76.0
18.3679,15.0,76.0
18.3729,16.0,76.0
18.3782,-24.0,76.0
18.3831,10.0,76.0
18.388,26.0,76.0
18.393,-31.0,76.0
18.398,-33.0,76.0
18.4031,42.0,76.0
18.4082,49.0,76.0
18.4132,-35.0,76.0
18.4181,-51.0,76.0
18.4233,26.0,74.0
18.4288,26.0,74.0
18.433,-35.0,74.0
18.438,0.0,72.0
18.443,60.0,74.0
18.4479,-3.0,74.0
18.4529,-74.0,74.0
18.4579,-13.0,74.0
18.463,61.0,74.0
18.468,25.0,76.0
18.473,-33.0,76.0
18.478,-15.0,76.0
18.4829,15.0,76.0
18.4879,-5.0,76.0
18.4932,-14.0,76.0
18.498,16.0,76.0
18.503,14.0,76.0
18.5082,-11.0,76.0
18.5129,0.0,76.0
18.5181,12.0,76.0
18.5229,-22.0,76.0
18.5283,-31.0,76.0
18.5331,28.0,76.0
18.5382,48.0,76.0
18.543,-10.0,76.0
18.548,-41.0,78.0
18.5532,-5.0,78.0
18.5581,17.0,78.0
18.563,3.0,76.0
18.568,1.0,76.0
18.5732,10.0,76.0
18.5781,-5.0,76.0
18.583,-20.0,76.0
18.588,3.0,76.0
18.5929,22.0,76.0
18.5979,-2.0,76.0
18.6032,-24.0,76.0
18.6082,-2.0,76.0
18.613,26.0,76.0
18.6181,12.0,76.0
18.6239,-19.0,76.0
18.6279,-14.0,76.0
18.6331,8.0,76.0
18.638,6.0,76.0
18.643,5.0,76.0
18.648,5.0,76.0
18.6529,-23.0,76.0
18.658,-22.0,76.0
18.663,38.0,76.0
18.668,43.0,76.0
18.6729,-37.0,76.0
18.6781,-59.0,78.0
18.683,18.0,78.0
18.688,57.0,78.0
18.6931,8.0,78.0
18.6981,-35.0,78.0
18.703,-24.0,78.0
18.7079,6.0,76.0
18.713,17.0,78.0
18.7181,18.0,76.0
18.7231,8.0,76.0
18.7283,-33.0,76.0
18.733,-40.0,76.0
18.738,42.0,76.0
18.743,64.0,76.0
18.7482,-48.0,76.0
18.7531,-71.0,78.0
18.758,47.0,78.0
18.7629,51.0,78.0
18.768,-45.0,78.0
18.7729,-7.0,76.0
18.7781,57.0,76.0
18.7832,-26.0,74.0
18.788,-83.0,76.0
18.793,33.0,74.0
18.798,109.0,76.0
18.803,-37.0,74.0
18.8082,-133.0,76.0
18.813,49.0,76.0
18.818,160.0,78.0
18.823,-27.0,78.0
18.8292,-164.0,80.0
18.833,-55.0,80.0
18.838,95.0,80.0
18.843,127.0,80.0
18.8495,42.0,80.0
18.8529,-91.0,78.0
18.8582,-155.0,80.0
18.8632,-37.0,80.0
18.8701,159.0,80.0
18.8732,138.0,80.0
18.878,-76.0,78.0
18.8832,-119.0,78.0
18.888,4.0,76.0
18.8931,20.0,76.0
18.8981,-7.0,76.0
18.903,50.0,76.0
18.9079,47.0,74.0
18.913,-50.0,74.0
18.9181,-57.0,74.0
18.9231,14.0,72.0
18.928,23.0,72.0
18.9329,9.0,70.0
18.938,8.0,70.0
18.943,-14.0,70.0
18.948,0.0,70.0
18.9531,30.0,70.0
18.9581,-22.0,70.0
18.963,-81.0,72.0
18.9679,0.0,72.0
18.9731,126.0,72.0
18.978,71.0,74.0
18.9832,-107.0,74.0
18.9881,-115.0,76.0
18.9929,32.0,76.0
18.998,74.0,78.0
19.0031,17.0,76.0
19.0079,8.0,76.0
19.0131,-9.0,76.0
19.0181,-58.0,78.0
19.0229,4.0,78.0
19.0279,74.0,78.0
19.0339,-41.0,78.0
19.0391,-102.0,80.0
19.0429,72.0,80.0
19.048,144.0,82.0
19.0541,-31.0,82.0
19.0595,-135.0,82.0
19.0631,-45.0,82.0
19.068,41.0,82.0
19.0736,60.0,84.0
19.0781,57.0,84.0
19.083,-12.0,84.0
19.0882,-72.0,84.0
19.0931,-7.0,84.0
19.0979,34.0,84.0
19.103,-36.0,84.0
19.1079,-21.0,84.0
19.1129,85.0,84.0
19.1181,50.0,84.0
19.1231,-82.0,86.0
19.128,-81.0,86.0
19.133,25.0,88.0
19.1391,80.0,88.0
19.1442,35.0,88.0
19.1483,-53.0,90.0
19.153,-54.0,90.0
19.158,41.0,90.0
19.163,22.0,90.0
19.1679,-65.0,90.0
19.1731,21.0,90.0
19.1781,105.0,92.0
19.183,-40.0,92.0
19.188,-114.0,94.0
19.1929,27.0,94.0
19.198,77.0,94.0
19.2031,-9.0,94.0
19.2081,-20.0,94.0
19.213,6.0,94.0
19.2181,-14.0,96.0
19.2231,-10.0,94.0
19.228,16.0,96.0
19.233,2.0,94.0
19.238,-4.0,94.0
19.243,25.0,94.0
19.2479,5.0,94.0
19.253,-52.0,96.0
19.2581,-26.0,96.0
19.263,49.0,96.0
19.2681,47.0,96.0
19.2731,-17.0,96.0
19.278,-41.0,98.0
19.283,-12.0,98.0
19.2881,12.0,98.0
19.2932,11.0,98.0
19.298,11.0,98.0
19.303,10.0,96.0
19.3079,-9.0,96.0
19.313,-25.0,96.0
19.318,0.0,94.0
19.3233,22.0,96.0
19.328,-3.0,94.0
19.333,-16.0,94.0
19.3379,14.0,94.0
19.343,17.0,94.0
19.348,-15.0,94.0
19.3531,-14.0,94.0
19.358,9.0,94.0
19.3629,5.0,94.0
19.368,-7.0,94.0
19.3729,0.0,92.0
19.3781,12.0,92.0
19.3829,4.0,92.0
19.388,-18.0,90.0
19.3929,-8.0,90.0
19.398,25.0,90.0
19.403,8.0,88.0
19.4082,-30.0,88.0
19.4132,-7.0,88.0
19.4181,27.0,88.0
19.4229,5.0,88.0
19.428,-16.0,86.0
19.4341,3.0,86.0
19.4381,4.0,84.0
19.443,-21.0,84.0
19.448,1.0,82.0
19.453,43.0,82.0
19.4579,-7.0,80.0
19.463,-68.0,80.0
19.4681,11.0,78.0
19.473,90.0,78.0
19.4779,-10.0,78.0
19.4829,-92.0,76.0
19.4879,8.0,76.0
19.4931,66.0,76.0
19.4981,-19.0,74.0
19.5032,-28.0,74.0
19.5079,38.0,72.0
19.5129,9.0,70.0
19.5179,-47.0,70.0
19.5231,-9.0,68.0
19.5281,31.0,68.0
19.5332,0.0,68.0
19.5381,-17.0,68.0
19.543,30.0,68.0
19.5479,50.0,68.0
19.5531,-44.0,68.0
19.5587,-127.0,68.0
19.563,7.0,68.0
19.5686,187.0,72.0
19.5731,55.0,72.0
19.5782,-180.0,74.0
19.5831,-92.0,76.0
19.588,116.0,78.0
19.5929,85.0,78.0
19.598,-39.0,78.0
19.6032,-38.0,78.0
19.6081,-12.0,78.0
19.6131,-42.0,76.0
19.618,15.0,76.0
19.6229,112.0,76.0
19.6279,14.0,74.0
19.6331,-116.0,76.0
19.6382,-25.0,74.0
19.643,82.0,76.0
19.6479,10.0,76.0
19.6532,-70.0,76.0
19.6583,-14.0,76.0
19.6636,65.0,78.0
19.668,42.0,76.0
19.673,-22.0,76.0
19.6779,-40.0,76.0
19.6829,-39.0,74.0
19.688,-18.0,72.0
19.6931,60.0,74.0
19.698,85.0,72.0
19.704,-28.0,72.0
19.7079,-98.0,74.0
19.713,-16.0,72.0
19.718,50.0,72.0
19.7232,29.0,72.0
19.728,8.0,72.0
19.7329,-8.0,72.0
19.7381,-32.0,72.0
19.7429,-15.0,72.0
19.7481,23.0,72.0
19.753,25.0,70.0
19.7579,-8.0,70.0
19.7637,-32.0,70.0
19.7679,0.0,68.0
19.773,45.0,68.0
19.7782,4.0,66.0
19.783,-56.0,68.0
19.7879,-10.0,66.0
19.7929,54.0,66.0
19.7979,12.0,66.0
19.8031,-43.0,66.0
19.8082,-10.0,66.0
19.813,34.0,66.0
19.818,9.0,64.0
19.8229,-24.0,64.0
19.8279,-6.0,62.0
19.833,5.0,62.0
19.838,-4.0,60.0
19.843,12.0,60.0
19.848,19.0,60.0
19.8529,-15.0,62.0
19.8579,-24.0,62.0
19.863,6.0,62.0
19.869,14.0,62.0
19.8739,0.0,62.0
19.878,-1.0,62.0
19.8833,5.0,60.0
19.8897,0.0,60.0
19.8932,-12.0,60.0
19.8981,-5.0,60.0
19.9031,15.0,60.0
19.9084,3.0,58.0
19.9131,-19.0,58.0
19.918,8.0,58.0
19.923,31.0,58.0
19.9281,-16.0,58.0
19.9331,-45.0,58.0
19.9381,13.0,58.0
19.9431,50.0,60.0
19.9482,-3.0,60.0
19.9532,-43.0,60.0
19.9582,-3.0,60.0
19.9647,29.0,60.0
19.968,0.0,60.0
19.973,-13.0,60.0
19.9782,14.0,60.0
19.9832,2.0,60.0
19.9881,-36.0,60.0
19.9931,0.0,60.0
19.9979,52.0,60.0
20.0029,1.0,60.0
20.008,-54.0,60.0
20.013,3.0,62.0
20.0181,50.0,62.0
20.0233,-7.0,62.0
20.028,-43.0,62.0
20.033,4.0,62.0
20.038,28.0,62.0
20.0431,-2.0,62.0
20.0479,-7.0,62.0
20.0529,12.0,62.0
20.0581,-10.0,62.0
20.0631,-35.0,62.0
20.0681,16.0,62.0
20.0729,58.0,62.0
20.0782,-10.0,62.0
20.0833,-68.0,64.0
20.0879,-3.0,64.0
20.093,56.0,64.0
20.0981,15.0,64.0
20.1031,-29.0,64.0
20.108,-12.0,64.0
20.113,1.0,62.0
20.1181,-5.0,62.0
20.1231,17.0,60.0
20.1281,30.0,62.0
20.133,-23.0,60.0
20.138,-54.0,60.0
20.1431,14.0,60.0
20.1482,68.0,62.0
20.1531,4.0,62.0
20.1582,-61.0,62.0
20.163,-17.0,62.0
20.1683,40.0,62.0
20.1731,14.0,62.0
20.178,-17.0,62.0
20.183,1.0,62.0
20.188,1.0,60.0
20.193,-23.0,60.0
20.1979,9.0,58.0
20.2029,46.0,58.0
20.208,-16.0,56.0
20.2131,-60.0,56.0
20.2181,18.0,54.0
20.2231,62.0,54.0
20.2279,-17.0,52.0
20.2331,-54.0,52.0
20.2381,11.0,50.0
20.2431,38.0,50.0
20.2479,-3.0,50.0
20.2529,-18.0,50.0
20.2581,2.0,50.0
20.2642,3.0,48.0
20.2679,-6.0,48.0
20.273,4.0,46.0
20.2781,19.0,46.0
20.283,-12.0,46.0
20.2881,-42.0,46.0
20.2931,15.0,46.0
20.2981,64.0,46.0
20.303,-11.0,46.0
20.308,-72.0,46.0
20.3129,2.0,46.0
20.3181,59.0,46.0
20.3231,8.0,44.0
20.328,-33.0,46.0
20.333,-12.0,44.0
20.3381,2.0,44.0
20.3429,0.0,42.0
20.3481,24.0,42.0
20.3533,32.0,42.0
20.3582,-41.0,42.0
20.363,-74.0,42.0
20.3679,36.0,42.0
20.3729,96.0,44.0
20.378,-15.0,44.0
20.383,-79.0,44.0
20.388,0.0,44.0
20.3931,40.0,44.0
20.3979,-2.0,44.0
20.4031,-5.0,44.0
20.4081,12.0,44.0
20.4131,-14.0,44.0
20.4179,-24.0,44.0
20.423,28.0,44.0
20.428,47.0,44.0
20.4329,-34.0,44.0
20.4382,-77.0,46.0
20.443,18.0,44.0
20.4479,84.0,46.0
20.4531,10.0,46.0
20.458,-52.0,46.0
20.4632,-23.0,46.0
20.468,8.0,46.0
20.473,6.0,46.0
20.4779,12.0,46.0
20.4829,23.0,46.0
20.4882,-2.0,46.0
20.4933,-45.0,46.0
20.4981,-11.0,46.0
20.503,58.0,48.0
20.508,12.0,48.0
20.5131,-65.0,48.0
20.5181,-10.0,48.0
20.523,57.0,50.0
20.5281,11.0,50.0
20.5329,-29.0,50.0
20.5379,-2.0,50.0
20.543,1.0,50.0
20.5481,-18.0,50.0
20.5531,1.0,50.0
20.5581,32.0,50.0
20.5629,8.0,50.0
20.568,-31.0,50.0
20.5729,-3.0,50.0
20.5786,33.0,50.0
20.583,-20.0,48.0
20.588,-52.0,50.0
20.5929,33.0,50.0
20.5979,69.0,50.0
20.603,-18.0,50.0
20.6082,-59.0,52.0
20.6131,0.0,52.0
20.6179,25.0,52.0
20.6229,4.0,52.0
20.628,2.0,50.0
20.633,7.0,50.0
20.6381,-11.0,50.0
20.643,-21.0,50.0
20.6479,13.0,50.0
20.6529,33.0,50.0
20.658,-20.0,50.0
20.6631,-49.0,50.0
20.6681,23.0,50.0
20.6729,63.0,52.0
20.679,-13.0,50.0
20.6836,-64.0,52.0
20.6879,0.0,52.0
20.6933,55.0,52.0
20.6981,11.0,52.0
20.703,-42.0,52.0
20.7082,-21.0,52.0
20.713,19.0,52.0
20.7179,23.0,52.0
20.7231,16.0,52.0
20.728,-5.0,52.0
20.733,-46.0,52.0
20.738,-31.0,52.0
20.7431,46.0,52.0
20.748,58.0,52.0
20.7531,-17.0,52.0
20.7581,-52.0,54.0
20.7629,-11.0,54.0
20.7679,19.0,54.0
20.7729,14.0,54.0
20.7792,7.0,52.0
20.7834,0.0,52.0
20.7881,-16.0,52.0
20.7929,-10.0,52.0
20.7979,23.0,50.0
20.8031,16.0,50.0
20.8082,-34.0,50.0
20.8132,-30.0,50.0
20.818,29.0,52.0
20.8229,41.0,52.0
20.8279,-2.0,52.0
20.8331,-30.0,52.0
20.838,-18.0,52.0
20.8431,8.0,52.0
20.8479,15.0,52.0
20.8529,5.0,50.0
20.8581,4.0,50.0
20.8631,-4.0,50.0
20.871,-22.0,50.0
20.8729,0.0,48.0
20.8779,28.0,48.0
20.8834,-2.0,48.0
20.8879,-25.0,48.0
20.8931,12.0,48.0
20.8979,18.0,48.0
20.903,-16.0,50.0
20.9081,-11.0,50.0
20.9129,12.0,50.0
20.9181,5.0,50.0
20.923,-4.0,48.0
20.9279,3.0,48.0
20.9329,0.0,48.0
20.938,-14.0,48.0
20.9429,-6.0,48.0
20.948,24.0,46.0
20.9531,22.0,46.0
20.9581,-27.0,46.0
20.9629,-41.0,46.0
20.9679,18.0,46.0
20.9729,48.0,48.0
20.978,0.0,48.0
20.9842,-35.0,48.0
20.9886,-9.0,48.0
20.9936,10.0,48.0
20.9982,4.0,46.0
21.0029,10.0,46.0
21.008,12.0,46.0
21.0131,-18.0,44.0
21.0182,-32.0,44.0
21.0229,11.0,44.0
21.0279,42.0,44.0
21.0329,1.0,44.0
21.038,-35.0,44.0
21.043,-8.0,44.0
21.0479,18.0,44.0
21.053,7.0,44.0
21.0579,-4.0,44.0
21.0629,-6.0,44.0
21.0681,0.0,42.0
21.0729,6.0,42.0
21.078,3.0,40.0
21.0829,-8.0,40.0
21.0881,-8.0,40.0
21.093,4.0,40.0
21.0981,18.0,38.0
21.1035,9.0,38.0
21.1079,-23.0,38.0
21.1129,-28.0,40.0
21.118,14.0,40.0
21.123,39.0,40.0
21.128,0.0,40.0
21.133,-34.0,40.0
21.1379,-6.0,40.0
21.1429,22.0,38.0
21.148,3.0,38.0
21.1532,-5.0,38.0
21.1581,5.0,38.0
21.1629,-16.0,36.0
21.1679,-23.0,36.0
21.1729,32.0,38.0
21.1782,47.0,38.0
21.1835,-28.0,38.0
21.1882,-60.0,38.0
21.1929,4.0,38.0
21.1979,47.0,40.0
21.2032,19.0,40.0
21.208,-19.0,40.0
21.2131,-24.0,40.0
21.2181,-1.0,38.0
21.2229,14.0,38.0
21.228,7.0,38.0
21.233,0.0,38.0
21.2379,-7.0,36.0
21.2431,-17.0,36.0
21.248,2.0,36.0
21.2529,31.0,36.0
21.2579,8.0,36.0
21.2631,-33.0,36.0
21.268,-20.0,36.0
21.273,26.0,36.0
21.278,24.0,38.0
21.2829,-13.0,38.0
21.2885,-18.0,38.0
21.293,3.0,36.0
21.298,0.0,36.0
21.3034,3.0,36.0
21.3081,27.0,36.0
21.3132,0.0,34.0
21.3182,-51.0,36.0
21.3236,-8.0,34.0
21.3282,55.0,36.0
21.333,11.0,34.0
21.3382,-40.0,36.0
21.3431,0.0,34.0
21.3483,24.0,34.0
21.3543,-19.0,34.0
21.3584,-19.0,34.0
21.3629,28.0,34.0
21.3681,23.0,34.0
21.3732,-24.0,34.0
21.3787,-25.0,34.0
21.3841,15.0,34.0
21.3889,16.0,34.0
21.394,-12.0,34.0
21.3981,0.0,32.0
21.4031,26.0,32.0
21.4097,-5.0,32.0
21.4129,-44.0,32.0
21.4185,-6.0,32.0
21.4232,45.0,34.0
21.4281,23.0,34.0
21.4329,-24.0,34.0
21.4379,-21.0,34.0
21.4434,0.0,34.0
21.4481,3.0,34.0
21.4531,14.0,32.0
21.4583,15.0,32.0
21.4636,-23.0,32.0
21.4681,-28.0,32.0
21.4738,28.0,32.0
21.4786,39.0,34.0
21.4831,-25.0,34.0
21.4882,-45.0,34.0
21.4939,10.0,34.0
21.4979,35.0,34.0
21.5029,1.0,34.0
21.5081,-14.0,34.0
21.5129,3.0,34.0
21.5179,-5.0,34.0
21.5231,-22.0,34.0
21.5279,18.0,34.0
21.5329,44.0,34.0
21.5379,-27.0,34.0
21.5431,-64.0,36.0
21.5482,31.0,36.0
21.5537,76.0,36.0
21.5584,-25.0,38.0
21.5634,-72.0,38.0
21.5681,16.0,38.0
21.5732,57.0,40.0
21.5786,-10.0,40.0
21.5829,-40.0,40.0
21.5884,8.0,40.0
21.5934,25.0,40.0
21.598,-10.0,40.0
21.6032,-4.0,38.0
21.6085,23.0,38.0
21.6129,-15.0,38.0
21.6179,-49.0,38.0
21.6229,19.0,38.0
21.6284,70.0,40.0
21.6332,-8.0,40.0
21.6379,-76.0,40.0
21.6429,-4.0,40.0
21.6493,62.0,42.0
21.6531,12.0,42.0
21.6581,-36.0,42.0
21.6638,-8.0,42.0
21.6679,10.0,40.0
21.6734,-9.0,42.0
21.6784,5.0,40.0
21.6831,35.0,40.0
21.6883,-10.0,40.0
21.6933,-55.0,42.0
21.6983,5.0,42.0
21.7029,55.0,42.0
21.7081,3.0,42.0
21.7129,-38.0,42.0
21.7179,-6.0,42.0
21.7233,18.0,44.0
21.7286,2.0,44.0
21.7331,-6.0,44.0
21.7379,5.0,42.0
21.7429,2.0,42.0
21.7482,-12.0,42.0
21.7539,3.0,42.0
21.7579,25.0,42.0
21.7629,-16.0,42.0
21.7681,-46.0,42.0
21.7731,23.0,42.0
21.7787,61.0,44.0
21.7829,-17.0,44.0
21.7887,-56.0,44.0
21.7931,9.0,44.0
21.7984,35.0,44.0
21.8033,-7.0,44.0
21.8082,-13.0,44.0
21.8129,10.0,44.0
21.8186,-3.0,44.0
21.8236,-21.0,44.0
21.8279,14.0,42.0
21.8333,41.0,44.0
21.8381,-18.0,42.0
21.843,-62.0,44.0
21.8479,9.0,44.0
21.8531,69.0,44.0
21.8581,2.0,44.0
21.8636,-56.0,44.0
21.868,-7.0,44.0
21.8734,31.0,46.0
21.8786,3.0,44.0
21.8831,-9.0,44.0
21.8881,5.0,44.0
21.8937,-1.0,44.0
21.8987,-13.0,44.0
21.9037,8.0,44.0
21.908,25.0,44.0
21.9131,-15.0,44.0
21.919,-41.0,44.0
21.9236,12.0,44.0
21.9281,51.0,44.0
21.933,2.0,44.0
21.9381,-40.0,46.0
21.9431,-12.0,46.0
21.9479,18.0,46.0
21.9537,2.0,46.0
21.9587,-4.0,44.0
21.963,15.0,44.0
21.968,3.0,44.0
21.9731,-22.0,44.0
21.9787,6.0,44.0
21.9829,24.0,44.0
21.9885,-30.0,44.0
21.9931,-39.0,44.0
21.9981,39.0,44.0
22.0029,54.0,46.0
22.0079,-16.0,46.0
22.0129,-42.0,46.0
22.0182,-12.0,46.0
22.0234,6.0,44.0
22.0281,13.0,44.0
22.0332,19.0,46.0
22.0379,9.0,46.0
22.0433,-20.0,46.0
22.0479,-33.0,46.0
22.0532,12.0,44.0
22.0581,49.0,46.0
22.0634,-11.0,46.0
22.0684,-63.0,46.0
22.0739,5.0,46.0
22.0784,65.0,46.0
22.0831,8.0,46.0
22.0881,-44.0,46.0
22.0936,-12.0,46.0
22.0979,16.0,46.0
22.1038,0.0,46.0
22.1084,-4.0,46.0
22.113,14.0,46.0
22.1187,4.0,46.0
22.1235,-20.0,46.0
22.1279,2.0,44.0
22.1329,31.0,44.0
22.1381,-13.0,44.0
22.1432,-49.0,46.0
22.1485,9.0,46.0
22.1529,53.0,46.0
22.1584,7.0,46.0
22.1629,-33.0,46.0
22.1681,-14.0,46.0
22.1732,6.0,46.0
22.1784,2.0,46.0
22.1829,1.0,44.0
22.1884,15.0,44.0
22.1934,5.0,42.0
22.1981,-24.0,42.0
22.203,-4.0,42.0
22.2081,30.0,42.0
22.213,-15.0,42.0
22.2188,-45.0,42.0
22.2231,28.0,42.0
22.2281,57.0,42.0
22.2331,-15.0,42.0
22.238,-42.0,42.0
22.2435,-3.0,42.0
22.2482,7.0,42.0
22.2531,2.0,42.0
22.2579,21.0,42.0
22.2629,21.0,42.0
22.2684,-23.0,42.0
22.2735,-45.0,42.0
22.2786,11.0,40.0
22.2831,57.0,42.0
22.2883,-3.0,40.0
22.2935,-62.0,42.0
22.2979,5.0,42.0
22.3035,60.0,42.0
22.3082,-12.0,42.0
22.3129,-49.0,42.0
22.3179,25.0,42.0
22.323,37.0,42.0
22.3279,-42.0,44.0
22.3329,-33.0,42.0
22.3379,53.0,44.0
22.3429,36.0,44.0
22.348,-50.0,44.0
22.3531,-25.0,44.0
22.3581,45.0,44.0
22.3629,-4.0,44.0
22.3679,-58.0,46.0
22.373,21.0,46.0
22.3781,80.0,46.0
22.3831,-2.0,46.0
22.3881,-77.0,48.0
22.3929,-29.0,48.0
22.3979,42.0,48.0
22.4031,36.0,48.0
22.4081,1.0,48.0
22.413,-12.0,48.0
22.4179,-28.0,48.0
22.4229,-22.0,48.0
22.4279,36.0,48.0
22.4331,54.0,48.0
22.4381,-30.0,48.0
22.443,-68.0,48.0
22.4479,12.0,48.0
22.4529,57.0,50.0
22.4579,6.0,50.0
22.4631,-29.0,50.0
22.468,-15.0,50.0
22.4729,1.0,48.0
22.478,16.0,48.0
22.4829,20.0,48.0
22.488,-4.0,48.0
22.4932,-35.0,48.0
22.4981,-22.0,48.0
22.503,34.0,48.0
22.5079,54.0,48.0
22.5129,-19.0,48.0
22.5179,-69.0,50.0
22.5243,5.0,50.0
22.5279,65.0,50.0
22.5329,0.0,50.0
22.5379,-48.0,50.0
22.5429,3.0,50.0
22.548,24.0,50.0
22.553,-11.0,50.0
22.558,2.0,50.0
22.563,27.0,50.0
22.5679,-19.0,50.0
22.5732,-43.0,50.0
22.578,22.0,50.0
22.583,51.0,50.0
22.588,-19.0,50.0
22.5929,-49.0,52.0
22.5979,12.0,52.0
22.6032,39.0,52.0
22.608,-5.0,52.0
22.6131,-23.0,52.0
22.618,5.0,52.0
22.6229,8.0,52.0
22.6279,-16.0,52.0
22.633,-2.0,50.0
22.6381,32.0,50.0
22.6429,6.0,50.0
22.6479,-39.0,50.0
22.653,-8.0,50.0
22.6579,36.0,50.0
22.663,0.0,50.0
22.668,-32.0,50.0
22.6729,10.0,50.0
22.6779,34.0,50.0
22.6829,-4.0,50.0
22.6881,-30.0,50.0
22.6931,-13.0,50.0
22.698,14.0,50.0
22.703,21.0,50.0
22.7079,7.0,48.0
22.7129,-6.0,48.0
22.7187,-22.0,48.0
22.7233,-23.0,48.0
22.7279,25.0,48.0
22.7329,51.0,48.0
22.7379,-17.0,48.0
22.7431,-67.0,50.0
22.7479,2.0,50.0
22.753,64.0,50.0
22.7581,15.0,50.0
22.7629,-39.0,52.0
22.7679,-23.0,52.0
22.7729,5.0,52.0
22.778,11.0,52.0
22.7831,21.0,50.0
22.7879,15.0,50.0
22.7931,-31.0,50.0
22.7981,-46.0,50.0
22.8029,26.0,50.0
22.8083,68.0,52.0
22.813,-11.0,52.0
22.8179,-73.0,52.0
22.8231,-5.0,52.0
22.8287,60.0,54.0
22.8336,15.0,54.0
22.8379,-33.0,54.0
22.843,-6.0,54.0
22.8479,9.0,54.0
22.8529,-20.0,54.0
22.858,4.0,54.0
22.8631,49.0,54.0
22.8731,-6.0,52.0
22.8732,-60.0,54.0
22.878,1.0,52.0
22.883,19.0,52.0
22.8879,-17.0,54.0
22.8934,59.0,54.0
22.898,76.0,54.0
22.9029,-96.0,56.0
22.9079,-127.0,58.0
22.913,52.0,58.0
22.918,108.0,60.0
22.9232,6.0,58.0
22.9279,-38.0,58.0
22.9329,-12.0,58.0
22.9379,0.0,58.0
22.9429,-19.0,58.0
22.9481,-27.0,58.0
22.953,27.0,58.0
22.9582,70.0,58.0
22.9629,5.0,58.0
22.9679,-75.0,58.0
22.973,-40.0,58.0
22.978,40.0,58.0
22.983,39.0,58.0
22.988,-5.0,58.0
22.9929,-5.0,58.0
22.9979,-4.0,56.0
23.0029,-30.0,56.0
23.0081,5.0,56.0
23.013,59.0,56.0
23.0181,-14.0,56.0
23.023,-82.0,56.0
23.028,19.0,56.0
23.0333,91.0,56.0
23.0379,-13.0,56.0
23.0429,-79.0,58.0
23.0487,6.0,58.0
23.0529,52.0,58.0
23.058,-5.0,58.0
23.0631,-24.0,58.0
23.0679,11.0,58.0
23.073,0.0,56.0
23.0779,-24.0,56.0
23.0829,25.0,56.0
23.088,48.0,56.0
23.0933,-49.0,56.0
23.098,-83.0,58.0
23.1029,50.0,58.0
23.1079,104.0,58.0
23.1129,-26.0,60.0
23.1179,-88.0,60.0
23.1231,1.0,60.0
23.1281,45.0,60.0
23.1336,6.0,60.0
23.1394,-3.0,60.0
23.1428,0.0,60.0
23.1481,-24.0,58.0
23.1531,-11.0,58.0
23.1581,45.0,58.0
23.1629,24.0,58.0
23.168,-67.0,58.0
23.1731,-47.0,60.0
23.1781,71.0,60.0
23.1829,67.0,60.0
23.188,-46.0,62.0
23.1929,-64.0,62.0
23.1979,11.0,62.0
23.2029,35.0,62.0
23.2081,6.0,62.0
23.213,-3.0,62.0
23.2179,-1.0,62.0
23.223,-15.0,60.0
23.2279,-17.0,60.0
23.233,27.0,60.0
23.2379,45.0,60.0
23.243,-37.0,60.0
23.248,-82.0,62.0
23.2529,32.0,62.0
23.258,108.0,64.0
23.2631,-6.0,64.0
23.268,-101.0,64.0
23.2731,-17.0,66.0
23.2781,66.0,66.0
23.2829,20.0,66.0
23.2881,-27.0,66.0
23.2932,-5.0,66.0
23.298,-1.0,66.0
23.303,-20.0,66.0
23.308,25.0,66.0
23.3129,56.0,66.0
23.3179,-39.0,66.0
23.3231,-95.0,68.0
23.328,25.0,68.0
23.3329,103.0,68.0
23.3379,9.0,68.0
23.3429,-65.0,70.0
23.3482,-29.0,70.0
23.353,19.0,70.0
23.3581,27.0,70.0
23.3629,2.0,70.0
23.3679,-25.0,70.0
23.3731,-12.0,70.0
23.3781,17.0,70.0
23.3829,31.0,68.0
23.388,16.0,68.0
23.3929,-43.0,68.0
23.3979,-62.0,70.0
23.4031,24.0,68.0
23.4081,77.0,70.0
23.413,8.0,70.0
23.4181,-46.0,70.0
23.4229,-19.0,70.0
23.4279,4.0,70.0
23.4331,-2.0,70.0
23.4381,14.0,70.0
23.4433,32.0,70.0
23.4479,-10.0,68.0
23.4529,-46.0,68.0
23.4579,8.0,68.0
23.4631,52.0,68.0
23.4682,-17.0,68.0
23.4731,-60.0,68.0
23.4779,16.0,68.0
23.4829,64.0,70.0
23.4879,7.0,70.0
23.4933,-49.0,70.0
23.498,-29.0,70.0
23.5031,16.0,70.0
23.508,23.0,70.0
23.5129,20.0,70.0
23.5179,14.0,70.0
23.523,-47.0,70.0
23.5281,-62.0,70.0
23.5329,58.0,70.0
23.5379,100.0,72.0
23.5438,-59.0,70.0
23.5489,-117.0,70.0
23.553,52.0,70.0
23.5581,110.0,70.0
23.5629,-39.0,70.0
23.5679,-85.0,72.0
23.5729,29.0,72.0
23.578,53.0,72.0
23.5832,-28.0,72.0
23.588,-28.0,72.0
23.5931,35.0,72.0
23.598,13.0,72.0
23.6029,-48.0,72.0
23.6081,1.0,72.0
23.6132,67.0,72.0
23.6181,-17.0,72.0
23.6229,-87.0,72.0
23.628,19.0,72.0
23.6331,91.0,74.0
23.638,-3.0,74.0
23.6439,-70.0,74.0
23.6481,-15.0,74.0
23.6529,34.0,74.0
23.6581,22.0,74.0
23.6631,0.0,74.0
23.6681,-14.0,74.0
23.6731,-24.0,72.0
23.6781,-10.0,72.0
23.6829,42.0,72.0
23.6881,51.0,72.0
23.6932,-47.0,72.0
23.6981,-88.0,74.0
23.7029,31.0,74.0
23.7079,97.0,74.0
23.7129,-8.0,74.0
23.718,-72.0,76.0
23.723,-1.0,76.0
23.7281,39.0,76.0
23.7329,-5.0,74.0
23.7379,-15.0,74.0
23.7429,19.0,72.0
23.7485,-4.0,72.0
23.7536,-34.0,72.0
23.7587,25.0,70.0
23.7629,58.0,72.0
23.7679,-39.0,72.0
23.773,-85.0,72.0
23.778,26.0,72.0
23.7831,89.0,74.0
23.7879,5.0,74.0
23.7929,-56.0,74.0
23.7979,-23.0,74.0
23.803,6.0,74.0
23.808,10.0,74.0
23.813,25.0,72.0
23.818,19.0,72.0
23.8229,-32.0,72.0
23.8279,-47.0,72.0
23.833,26.0,70.0
23.8381,65.0,72.0
23.843,-17.0,72.0
23.8486,-74.0,72.0
23.8529,-1.0,72.0
23.8585,64.0,74.0
23.8644,23.0,74.0
23.8687,-32.0,74.0
23.8729,-24.0,74.0
23.8779,1.0,74.0
23.8828,0.0,72.0
23.888,6.0,72.0
23.8931,29.0,72.0
23.898,-3.0,70.0
23.903,-53.0,70.0
23.9079,11.0,68.0
23.913,80.0,70.0
23.9179,-25.0,70.0
23.9232,-109.0,70.0
23.9279,21.0,70.0
23.9329,115.0,72.0
23.9381,1.0,72.0
23.9429,-83.0,74.0
23.9488,-12.0,74.0
23.9537,35.0,72.0
23.9579,-6.0,72.0
23.9628,2.0,70.0
23.9678,48.0,72.0
23.9729,-15.0,70.0
23.9781,-90.0,72.0
23.983,5.0,70.0
23.9882,105.0,72.0
23.9929,5.0,72.0
23.9979,-89.0,72.0
24.003,3.0,72.0
24.0081,66.0,72.0
24.013,-21.0,72.0
24.0179,-54.0,74.0
24.0229,22.0,74.0
24.0279,47.0,74.0
24.0332,-6.0,74.0
24.0382,-23.0,72.0
24.043,1.0,72.0
24.0479,-13.0,72.0
24.0535,-30.0,72.0
24.0579,37.0,72.0
24.0629,75.0,72.0
24.068,-31.0,72.0
24.0731,-100.0,74.0
24.0779,7.0,74.0
24.0829,86.0,74.0
24.0881,13.0,76.0
24.0934,-49.0,76.0
24.098,-17.0,76.0
24.1029,14.0,74.0
24.1081,4.0,74.0
24.113,15.0,74.0
24.1181,26.0,74.0
24.1234,-43.0,74.0
24.128,-76.0,74.0
24.1329,55.0,74.0
24.1379,131.0,76.0
24.143,-38.0,76.0
24.1482,-157.0,78.0
24.153,2.0,78.0
24.1581,135.0,80.0
24.1629,20.0,80.0
24.1679,-80.0,80.0
24.173,-10.0,80.0
24.1779,26.0,78.0
24.1833,-30.0,78.0
24.1879,13.0,76.0
24.1929,88.0,76.0
24.1979,-37.0,76.0
24.2031,-148.0,78.0
24.2082,36.0,76.0
24.2131,177.0,78.0
24.218,-15.0,78.0
24.2229,-157.0,80.0
24.2279,-4.0,80.0
24.2331,100.0,80.0
24.2381,14.0,80.0
24.2429,-35.0,80.0
24.248,-9.0,80.0
24.2529,-16.0,80.0
24.2582,-14.0,80.0
24.2629,54.0,80.0
24.2679,57.0,80.0
24.273,-74.0,80.0
24.2781,-110.0,82.0
24.283,62.0,82.0
24.288,135.0,84.0
24.2931,-29.0,84.0
24.298,-112.0,84.0
24.3031,7.0,84.0
24.3079,67.0,86.0
24.313,-7.0,86.0
24.3181,-31.0,86.0
24.323,16.0,86.0
24.3279,10.0,84.0
24.333,-30.0,84.0
24.3379,14.0,84.0
24.3429,65.0,84.0
24.348,-38.0,82.0
24.3531,-119.0,84.0
24.3584,32.0,84.0
24.3629,145.0,86.0
24.3678,-1.0,86.0
24.3731,-117.0,88.0
24.3781,-13.0,88.0
24.383,62.0,88.0
24.388,-1.0,88.0
24.3929,-24.0,88.0
24.3979,24.0,88.0
24.403,6.0,86.0
24.4081,-40.0,86.0
24.413,18.0,86.0
24.4179,69.0,86.0
24.4229,-50.0,86.0
24.4279,-123.0,88.0
24.433,49.0,88.0
24.438,165.0,90.0
24.443,-3.0,90.0
24.4479,-151.0,92.0
24.4529,-41.0,92.0
24.458,91.0,94.0
24.464,45.0,94.0
24.4679,-32.0,94.0
24.473,-15.0,94.0
24.478,1.0,92.0
24.4829,-17.0,92.0
24.4879,18.0,92.0
24.493,51.0,92.0
24.4979,-44.0,92.0
24.5029,-96.0,92.0
24.5081,46.0,94.0
24.513,128.0,94.0
24.5182,-7.0,94.0
24.5231,-108.0,96.0
24.5279,-33.0,96.0
24.5329,51.0,98.0
24.5379,35.0,98.0
24.5429,-3.0,98.0
24.548,-6.0,96.0
24.5531,-17.0,96.0
24.5581,-24.0,96.0
24.5631,37.0,94.0
24.5678,61.0,96.0
24.5729,-65.0,94.0
24.578,-110.0,96.0
24.5831,65.0,96.0
24.5879,135.0,98.0
24.5929,-28.0,98.0
24.598,-103.0,100.0
24.6032,-3.0,100.0
24.6082,43.0,100.0
24.613,4.0,100.0
24.6182,-5.0,98.0
24.6229,11.0,98.0
24.628,-3.0,96.0
24.633,-28.0,96.0
24.638,11.0,96.0
24.6429,57.0,96.0
24.6479,-31.0,96.0
24.6529,-98.0,98.0
24.6579,35.0,96.0
24.6629,122.0,98.0
24.668,-12.0,98.0
24.673,-103.0,100.0
24.678,-9.0,100.0
24.6829,59.0,100.0
24.6881,13.0,100.0
24.6933,-21.0,100.0
24.6979,-1.0,100.0
24.7029,-9.0,98.0
24.7079,-23.0,98.0
24.7129,49.0,98.0
24.7179,74.0,98.0
24.7231,-95.0,98.0
24.7282,-149.0,100.0
24.7329,104.0,102.0
24.7379,201.0,104.0
24.7429,-61.0,106.0
24.7483,-186.0,108.0
24.753,13.0,108.0
24.758,121.0,110.0
24.7629,0.0,108.0
24.7679,-56.0,108.0
24.7729,19.0,108.0
24.7778,14.0,106.0
24.7837,-48.0,106.0
24.7881,27.0,104.0
24.7928,93.0,106.0
24.7982,-71.0,104.0
24.8031,-154.0,106.0
24.808,71.0,106.0
24.813,181.0,110.0
24.818,-23.0,110.0
24.8231,-135.0,110.0
24.8279,-10.0,110.0
24.8329,60.0,110.0
24.8381,0.0,110.0
24.843,-15.0,108.0
24.8479,28.0,108.0
24.8529,0.0,104.0
24.8579,-51.0,106.0
24.8631,18.0,104.0
24.8681,84.0,104.0
24.8732,-41.0,104.0
24.878,-132.0,106.0
24.8829,27.0,106.0
24.8881,148.0,108.0
24.8931,21.0,108.0
24.8981,-95.0,108.0
24.903,-46.0,108.0
24.9079,9.0,108.0
24.9129,13.0,106.0
24.918,44.0,106.0
24.923,47.0,106.0
24.9281,-49.0,104.0
24.9329,-90.0,106.0
24.9382,34.0,104.0
24.9429,99.0,106.0
24.9481,-33.0,104.0
24.9531,-91.0,106.0
24.9581,37.0,106.0
24.9629,81.0,108.0
24.9679,-26.0,108.0
24.973,-62.0,108.0
24.978,9.0,108.0
24.983,33.0,108.0
24.9881,-4.0,106.0
24.9929,-3.0,106.0
24.998,18.0,104.0
25.0032,-18.0,102.0
25.0082,-45.0,104.0
25.0131,25.0,102.0
25.0181,69.0,104.0
25.023,-20.0,102.0
25.0279,-78.0,104.0
25.0329,11.0,104.0
25.038,76.0,104.0
25.043,-1.0,104.0
25.048,-66.0,104.0
25.0529,-5.0,104.0
25.0578,53.0,104.0
25.0629,4.0,104.0
25.068,-30.0,102.0
25.073,9.0,102.0
25.078,0.0,98.0
25.0829,-38.0,100.0
25.0881,26.0,98.0
25.0936,70.0,98.0
25.0979,-30.0,96.0
25.1029,-84.0,98.0
25.1079,15.0,98.0
25.1129,68.0,98.0
25.1179,-1.0,98.0
25.123,-32.0,98.0
25.1279,5.0,98.0
25.1328,1.0,98.0
25.138,-24.0,96.0
25.1429,12.0,96.0
25.1479,47.0,96.0
25.1529,-15.0,94.0
25.1579,-62.0,94.0
25.1629,12.0,94.0
25.168,64.0,94.0
25.1729,-8.0,94.0
25.1781,-58.0,94.0
25.1835,7.0,94.0
25.1879,48.0,94.0
25.1929,-4.0,94.0
25.1979,-32.0,94.0
25.2029,2.0,94.0
25.2082,6.0,92.0
25.213,-13.0,92.0
25.218,21.0,90.0
25.223,39.0,90.0
25.2279,-35.0,88.0
25.2329,-68.0,90.0
25.238,24.0,88.0
25.243,76.0,88.0
25.2479,1.0,88.0
25.2529,-54.0,90.0
25.2579,-16.0,90.0
25.2629,20.0,90.0
25.268,12.0,90.0
25.2729,1.0,90.0
25.278,0.0,88.0
25.2829,-7.0,88.0
25.2887,-13.0,88.0
25.2932,12.0,86.0
25.298,29.0,86.0
25.3029,-22.0,84.0
25.3079,-49.0,86.0
25.3129,26.0,84.0
25.318,59.0,86.0
25.323,-17.0,84.0
25.3279,-44.0,84.0
25.333,11.0,84.0
25.3379,12.0,84.0
25.3431,-20.0,86.0
25.3485,12.0,84.0
25.3529,33.0,84.0
25.358,-17.0,84.0
25.3629,-34.0,82.0
25.3679,17.0,80.0
25.373,26.0,80.0
25.378,-24.0,76.0
25.383,-20.0,76.0
25.3879,26.0,74.0
25.393,14.0,74.0
25.3979,-19.0,72.0
25.4031,0.0,72.0
25.4082,13.0,72.0
25.4129,-10.0,72.0
25.418,-14.0,72.0
25.4229,9.0,70.0
25.4279,14.0,70.0
25.433,-1.0,68.0
25.4381,-10.0,68.0
25.443,1.0,66.0
25.448,13.0,64.0
25.4529,-11.0,62.0
25.458,-27.0,62.0
25.463,18.0,60.0
25.468,43.0,60.0
25.4731,-14.0,60.0
25.4781,-46.0,60.0
25.4829,4.0,60.0
25.4879,33.0,60.0
25.4945,0.0,60.0
25.4988,-16.0,60.0
25.5029,2.0,60.0
25.508,2.0,58.0
25.5129,-5.0,58.0
25.5179,14.0,56.0
25.523,15.0,56.0
25.5281,-34.0,54.0
25.5329,-38.0,54.0
25.5379,34.0,54.0
25.5429,59.0,54.0
25.5479,-6.0,54.0
25.553,-49.0,54.0
25.558,-23.0,54.0
25.5629,11.0,54.0
25.5679,23.0,54.0
25.573,22.0,52.0
25.5778,1.0,52.0
25.5829,-32.0,50.0
25.5887,-27.0,50.0
25.5929,28.0,50.0
25.5979,43.0,50.0
25.6031,-22.0,48.0
25.6082,-51.0,48.0
25.613,9.0,48.0
25.6179,43.0,48.0
25.6228,7.0,48.0
25.6279,-19.0,48.0
25.633,-16.0,48.0
25.638,-5.0,48.0
25.6429,10.0,48.0
25.6479,18.0,48.0
25.6529,3.0,48.0
25.6579,-17.0,46.0
25.6629,-19.0,46.0
25.668,10.0,46.0
25.6729,33.0,46.0
25.6781,-5.0,44.0
25.6829,-40.0,46.0
25.6881,0.0,44.0
25.6943,35.0,44.0
25.6979,3.0,44.0
25.703,-21.0,44.0
25.7079,-2.0,44.0
25.7129,11.0,44.0
25.7179,-6.0,44.0
25.723,-7.0,44.0
25.7279,16.0,44.0
25.7329,4.0,42.0
25.7379,-27.0,42.0
25.7429,3.0,42.0
25.7481,42.0,42.0
25.753,-6.0,40.0
25.758,-54.0,42.0
25.7629,-5.0,40.0
25.7683,45.0,42.0
25.7729,18.0,42.0
25.7785,-16.0,42.0
25.783,-12.0,42.0
25.7884,-8.0,42.0
25.7939,-9.0,42.0
25.7984,12.0,40.0
25.8032,26.0,40.0
25.8086,0.0,40.0
25.8129,-24.0,40.0
25.8179,-9.0,38.0
25.823,14.0,40.0
25.828,2.0,38.0
25.8331,-12.0,38.0
25.8385,5.0,38.0
25.8434,17.0,38.0
25.8483,-3.0,38.0
25.8541,-14.0,38.0
25.858,3.0,38.0
25.8636,1.0,38.0
25.8679,-12.0,36.0
25.8729,12.0,36.0
25.8778,29.0,36.0
25.8829,-25.0,36.0
25.8882,-48.0,36.0
25.8938,32.0,36.0
25.8987,64.0,36.0
25.9028,-30.0,36.0
25.908,-66.0,38.0
25.913,19.0,38.0
25.9182,49.0,38.0
25.9237,-10.0,38.0
25.9284,-23.0,38.0
25.933,14.0,38.0
25.938,6.0,38.0
25.9428,-27.0,38.0
25.9481,-1.0,38.0
25.9533,41.0,38.0
25.9584,-1.0,38.0
25.9631,-55.0,38.0
25.9681,6.0,38.0
25.973,68.0,38.0
25.9784,-11.0,38.0
25.9838,-70.0,38.0
25.9879,11.0,38.0
25.993,55.0,40.0
25.9979,-11.0,40.0
26.0037,-27.0,38.0
26.0083,16.0,38.0
26.0128,0.0,38.0
26.0183,-27.0,38.0
26.023,20.0,38.0
26.0283,42.0,38.0
26.0332,-34.0,40.0
26.038,-59.0,40.0
26.0428,34.0,40.0
26.0479,70.0,42.0
26.0531,-21.0,42.0
26.0583,-68.0,42.0
26.0632,4.0,42.0
26.0679,50.0,42.0
26.0729,3.0,42.0
26.078,-28.0,42.0
26.0828,0.0,42.0
26.0881,14.0,42.0
26.0936,-3.0,42.0
26.0978,-2.0,42.0
26.1034,5.0,42.0
26.1078,-15.0,42.0
26.1137,-19.0,42.0
26.1186,30.0,42.0
26.1239,45.0,42.0
26.1279,-26.0,42.0
26.133,-63.0,44.0
26.1381,5.0,42.0
26.1429,53.0,44.0
26.1483,10.0,44.0
26.1534,-24.0,44.0
26.1584,-7.0,44.0
26.1631,-1.0,44.0
26.1681,-8.0,44.0
26.1731,18.0,44.0
26.1779,28.0,44.0
26.1829,-27.0,42.0
26.1879,-47.0,44.0
26.1933,26.0,42.0
26.198,57.0,44.0
26.203,-19.0,44.0
26.2088,-52.0,44.0
26.2128,11.0,44.0
26.2187,37.0,44.0
26.2229,-4.0,44.0
26.228,-14.0,44.0
26.2331,1.0,44.0
26.2384,-9.0,42.0
26.2429,-11.0,42.0
26.2481,26.0,42.0
26.253,33.0,42.0
26.2583,-25.0,42.0
26.2632,-47.0,42.0
26.2684,11.0,42.0
26.2735,41.0,44.0
26.2779,2.0,44.0
26.283,-21.0,44.0
26.2879,-4.0,44.0
26.2931,4.0,44.0
26.2984,-3.0,42.0
26.3034,-4.0,42.0
26.3089,9.0,42.0
26.3135,10.0,42.0
26.3186,-8.0,42.0
26.3234,-2.0,42.0
26.3283,19.0,42.0
26.333,-16.0,42.0
26.3382,-50.0,42.0
26.3428,16.0,42.0
26.3481,76.0,44.0
26.3535,4.0,44.0
26.3584,-67.0,44.0
26.3631,-18.0,44.0
26.3689,33.0,44.0
26.3732,11.0,44.0
26.3783,-4.0,44.0
26.383,5.0,44.0
26.3879,-10.0,44.0
26.393,-22.0,44.0
26.3981,23.0,44.0
26.4032,41.0,44.0
26.4086,-39.0,44.0
26.4129,-66.0,46.0
26.4185,37.0,46.0
26.4231,78.0,46.0
26.4288,-11.0,46.0
26.433,-57.0,48.0
26.4383,-10.0,48.0
26.4433,22.0,48.0
26.448,11.0,48.0
26.453,-2.0,46.0
26.4581,0.0,46.0
26.4631,-4.0,46.0
26.4684,-11.0,46.0
26.4735,18.0,46.0
26.4784,35.0,48.0
26.4831,-35.0,48.0
26.488,-69.0,48.0
26.4936,35.0,48.0
26.498,84.0,50.0
26.5031,-15.0,50.0
26.5087,-66.0,52.0
26.513,-2.0,52.0
26.5183,31.0,52.0
26.5236,3.0,50.0
26.5278,-4.0,50.0
26.5328,5.0,50.0
26.538,-6.0,48.0
26.5431,-16.0,48.0
26.5481,11.0,48.0
26.5533,29.0,48.0
26.5581,-17.0,48.0
26.563,-50.0,48.0
26.5682,12.0,48.0
26.5731,62.0,48.0
26.5783,4.0,48.0
26.583,-47.0,48.0
26.588,-14.0,50.0
26.5929,15.0,48.0
26.598,2.0,48.0
26.603,7.0,48.0
26.6085,15.0,48.0
26.6133,-13.0,48.0
26.6178,-24.0,48.0
26.6231,18.0,46.0
26.6281,34.0,46.0
26.6332,-28.0,46.0
26.6384,-53.0,48.0
26.6429,23.0,48.0
26.648,61.0,48.0
26.6531,-1.0,48.0
26.6581,-40.0,48.0
26.6634,-14.0,48.0
26.6688,4.0,48.0
26.6728,6.0,46.0
26.6784,22.0,46.0
26.6832,17.0,46.0
26.6881,-27.0,46.0
26.6931,-40.0,46.0
26.699,20.0,44.0
26.7029,52.0,46.0
26.7079,-13.0,46.0
26.7134,-53.0,46.0
26.7184,7.0,46.0
26.7229,44.0,46.0
26.7281,0.0,46.0
26.7331,-26.0,46.0
26.7381,-7.0,46.0
26.743,3.0,46.0
26.7482,5.0,46.0
26.7534,14.0,46.0
26.7584,5.0,46.0
26.7628,-21.0,46.0
26.7681,-21.0,46.0
26.7732,18.0,44.0
26.7783,34.0,46.0
26.7833,-12.0,44.0
26.7879,-39.0,44.0
26.7929,6.0,44.0
26.798,35.0,46.0
26.8029,0.0,46.0
26.8081,-21.0,46.0
26.813,-3.0,46.0
26.8179,6.0,44.0
26.8231,0.0,44.0
26.8278,3.0,44.0
26.8329,11.0,44.0
26.8383,-8.0,42.0
26.8428,-24.0,42.0
26.8478,12.0,42.0
26.8528,36.0,42.0
26.8581,-17.0,42.0
26.8629,-45.0,42.0
26.868,19.0,42.0
26.8741,47.0,44.0
26.878,-11.0,44.0
26.8829,-37.0,44.0
26.8879,3.0,44.0
26.8929,20.0,44.0
26.8979,-2.0,44.0
26.9029,-5.0,42.0
26.9079,10.0,42.0
26.9128,-5.0,42.0
26.9178,-22.0,42.0
26.923,16.0,42.0
26.928,35.0,42.0
26.9329,-26.0,42.0
26.9379,-44.0,44.0
26.9428,25.0,44.0
26.9479,41.0,44.0
26.9531,-14.0,44.0
26.9579,-20.0,44.0
26.9629,-1.0,44.0
26.9679,-9.0,44.0
26.9728,13.0,44.0
26.978,36.0,44.0
26.983,-14.0,44.0
26.9879,-51.0,44.0
26.9929,5.0,44.0
26.9979,61.0,44.0
27.0029,5.0,44.0
27.0082,-70.0,44.0
27.013,-16.0,44.0
27.0179,70.0,46.0
27.0229,23.0,46.0
27.0286,-54.0,46.0
27.0329,-23.0,46.0
27.038,34.0,46.0
27.0429,15.0,46.0
27.0479,-17.0,46.0
27.0528,-1.0,44.0
27.0579,9.0,44.0
27.0629,-16.0,44.0
27.0681,-17.0,44.0
27.073,27.0,42.0
27.0779,37.0,44.0
27.0829,-24.0,44.0
27.0879,-53.0,44.0
27.0932,10.0,44.0
27.0979,55.0,44.0
27.1042,3.0,44.0
27.1079,-40.0,46.0
27.1129,-12.0,46.0
27.1179,16.0,44.0
27.123,10.0,44.0
27.1278,10.0,44.0
27.1328,5.0,44.0
27.1379,-32.0,42.0
27.143,-34.0,42.0
27.148,39.0,42.0
27.1531,60.0,44.0
27.1582,-25.0,44.0
27.1629,-61.0,44.0
27.1679,4.0,44.0
27.173,39.0,44.0
27.178,6.0,44.0
27.1831,-10.0,44.0
27.188,-2.0,44.0
27.1929,-9.0,44.0
27.1979,-11.0,44.0
27.203,23.0,44.0
27.2079,31.0,44.0
27.2129,-28.0,44.0
27.2179,-51.0,44.0
27.2229,18.0,44.0
27.229,57.0,44.0
27.2329,0.0,44.0
27.238,-45.0,44.0
27.2429,-9.0,44.0
27.2478,24.0,44.0
27.2529,5.0,44.0
27.2581,-14.0,44.0
27.263,0.0,44.0
27.268,17.0,44.0
27.2731,-4.0,44.0
27.278,-18.0,44.0
27.2829,13.0,42.0
27.288,8.0,42.0
27.2932,-30.0,42.0
27.2979,2.0,42.0
27.303,44.0,42.0
27.308,-7.0,42.0
27.3129,-47.0,44.0
27.318,2.0,42.0
27.3231,44.0,44.0
27.328,17.0,42.0
27.3329,-32.0,42.0
27.3391,-41.0,44.0
27.3428,1.0,42.0
27.3481,38.0,42.0
27.353,39.0,42.0
27.3579,6.0,42.0
27.3629,-51.0,42.0
27.3678,-61.0,44.0
27.3731,20.0,44.0
27.3779,77.0,44.0
27.3829,13.0,44.0
27.388,-52.0,46.0
27.3928,-11.0,46.0
27.3979,30.0,46.0
27.4031,-13.0,46.0
27.4085,-35.0,46.0
27.4129,22.0,46.0
27.4179,42.0,46.0
27.4228,-10.0,46.0
27.428,-18.0,46.0
27.4328,10.0,46.0
27.4383,-25.0,46.0
27.4429,-44.0,46.0
27.448,46.0,46.0
27.4529,82.0,48.0
27.458,-24.0,48.0
27.4631,-83.0,50.0
27.4678,-9.0,50.0
27.473,43.0,50.0
27.478,18.0,50.0
27.4828,0.0,50.0
27.4881,0.0,50.0
27.4933,-18.0,50.0
27.4979,-26.0,50.0
27.5029,14.0,50.0
27.508,41.0,50.0
27.5129,-11.0,48.0
27.518,-48.0,50.0
27.523,11.0,50.0
27.528,49.0,50.0
27.5328,-4.0,50.0
27.5379,-38.0,50.0
27.5429,-3.0,50.0
27.5478,17.0,50.0
27.553,2.0,50.0
27.5578,-1.0,50.0
27.5628,10.0,50.0
27.5679,-4.0,50.0
27.573,-26.0,50.0
27.5778,7.0,48.0
27.583,43.0,48.0
27.5879,-11.0,48.0
27.5928,-56.0,50.0
27.5978,7.0,48.0
27.6031,54.0,50.0
27.608,3.0,50.0
27.6131,-33.0,50.0
27.618,-3.0,50.0
27.6229,13.0,50.0
27.6279,-7.0,48.0
27.633,-9.0,48.0
27.638,18.0,48.0
27.6439,13.0,48.0
27.6485,-23.0,48.0
27.654,-7.0,48.0
27.6579,31.0,46.0
27.663,-4.0,46.0
27.6681,-42.0,46.0
27.673,4.0,46.0
27.6781,43.0,46.0
27.6831,10.0,46.0
27.688,-23.0,46.0
27.6933,-22.0,46.0
27.698,-6.0,46.0
27.703,10.0,46.0
27.7078,24.0,46.0
27.7128,17.0,46.0
27.718,-23.0,46.0
27.723,-46.0,46.0
27.7279,12.0,46.0
27.7328,68.0,46.0
27.7378,0.0,46.0
27.7429,-78.0,48.0
27.748,-13.0,46.0
27.7529,68.0,48.0
27.758,17.0,48.0
27.7629,-44.0,48.0
27.7679,-6.0,48.0
27.7729,22.0,48.0
27.7781,-10.0,48.0
27.7831,-10.0,48.0
27.7879,21.0,48.0
27.7928,2.0,46.0
27.7979,-25.0,46.0
27.8029,12.0,46.0
27.808,33.0,46.0
27.813,-31.0,46.0
27.8181,-54.0,46.0
27.8229,33.0,46.0
27.8279,72.0,48.0
27.833,-9.0,48.0
27.8381,-61.0,48.0
27.8429,-16.0,48.0
27.8479,25.0,48.0
27.8529,21.0,48.0
27.858,8.0,48.0
27.8629,-2.0,48.0
27.868,-24.0,48.0
27.8731,-25.0,48.0
27.878,23.0,48.0
27.8828,50.0,48.0
27.8882,-13.0,48.0
27.8931,-61.0,48.0
27.898,0.0,48.0
27.9029,54.0,50.0
27.9078,11.0,50.0
27.9129,-30.0,50.0
27.918,-8.0,50.0
27.923,8.0,50.0
27.928,-7.0,50.0
27.9329,4.0,48.0
27.9378,30.0,50.0
27.9429,-10.0,48.0
27.9479,-52.0,50.0
27.9529,12.0,48.0
27.958,69.0,50.0
27.9628,-6.0,50.0
27.9679,-70.0,50.0
27.9728,-4.0,50.0
27.9778,51.0,50.0
27.9829,12.0,50.0
27.988,-22.0,50.0
27.9928,-9.0,50.0
27.9979,-2.0,50.0
28.003,-4.0,48.0
28.0079,15.0,48.0
28.013,24.0,48.0
28.0181,-14.0,46.0
28.023,-39.0,48.0
28.0278,12.0,46.0
28.0329,46.0,48.0
28.0379,-16.0,46.0
28.0429,-50.0,48.0
28.0479,13.0,48.0
28.0529,40.0,48.0
28.0578,0.0,46.0
28.0629,-11.0,46.0
28.0679,-3.0,46.0
28.0729,-19.0,46.0
28.078,-11.0,46.0
28.0829,29.0,46.0
28.088,33.0,46.0
28.0932,-22.0,46.0
28.0979,-47.0,46.0
28.1029,11.0,44.0
28.1078,50.0,46.0
28.1129,-8.0,44.0
28.118,-49.0,44.0
28.123,5.0,46.0
28.128,45.0,46.0
28.133,2.0,46.0
28.138,-34.0,46.0
28.143,-8.0,46.0
28.1479,19.0,46.0
28.1536,5.0,46.0
28.1579,-2.0,44.0
28.1628,12.0,44.0
28.168,-10.0,44.0
28.1734,-37.0,44.0
28.1779,9.0,44.0
28.183,51.0,44.0
28.1879,0.0,44.0
28.1929,-45.0,44.0
28.198,-9.0,46.0
28.203,27.0,46.0
28.2081,10.0,46.0
28.2131,-11.0,46.0
28.2179,-7.0,46.0
28.2228,1.0,44.0
28.228,3.0,44.0
28.233,8.0,44.0
28.2379,5.0,44.0
28.2429,-20.0,44.0
28.2479,-23.0,44.0
28.253,24.0,44.0
28.259,42.0,44.0
28.2631,-14.0,44.0
28.2681,-49.0,44.0
28.273,-2.0,44.0
28.278,40.0,44.0
28.2828,12.0,44.0
28.288,-23.0,44.0
28.2931,-11.0,44.0
28.298,4.0,44.0
28.303,0.0,44.0
28.3079,14.0,44.0
28.3128,22.0,44.0
28.3181,-26.0,44.0
28.3231,-48.0,44.0
28.3279,21.0,44.0
28.3329,58.0,46.0
28.3379,-6.0,46.0
28.343,-47.0,46.0
28.3479,-4.0,46.0
28.3535,27.0,46.0
28.3579,9.0,46.0
28.3629,-9.0,44.0
28.3678,-7.0,44.0
28.373,-4.0,44.0
28.378,-1.0,44.0
28.383,15.0,42.0
28.3879,21.0,42.0
28.3928,-20.0,42.0
28.3978,-41.0,42.0
28.403,11.0,42.0
28.408,46.0,42.0
28.413,4.0,42.0
28.4181,-28.0,42.0
28.4228,-10.0,42.0
28.4278,3.0,42.0
28.433,-3.0,42.0
28.438,6.0,42.0
28.443,26.0,42.0
28.4479,3.0,42.0
28.4529,-41.0,42.0
28.4593,-18.0,42.0
28.4638,43.0,42.0
28.4679,19.0,40.0
28.4731,-34.0,42.0
28.4779,-3.0,40.0
28.4829,23.0,40.0
28.4882,-20.0,40.0
28.4933,-23.0,40.0
28.498,34.0,40.0
28.5029,34.0,42.0
28.508,-25.0,42.0
28.5129,-39.0,42.0
28.5182,5.0,42.0
28.5231,30.0,40.0
28.5279,6.0,40.0
28.533,-9.0,40.0
28.5378,3.0,40.0
28.543,-15.0,40.0
28.5481,-33.0,40.0
28.5529,24.0,40.0
28.5579,62.0,40.0
28.5636,-9.0,40.0
28.568,-62.0,42.0
28.573,-7.0,42.0
28.5783,39.0,42.0
28.583,6.0,42.0
28.5879,-17.0,40.0
28.5928,5.0,40.0
28.5978,4.0,40.0
28.603,-18.0,40.0
28.6082,16.0,40.0
28.6129,39.0,40.0
28.618,-41.0,40.0
28.6228,-73.0,40.0
28.6279,46.0,40.0
28.6329,97.0,42.0
28.638,-21.0,42.0
28.6429,-87.0,44.0
28.648,-7.0,44.0
28.653,50.0,44.0
28.6579,16.0,44.0
28.663,-13.0,44.0
28.6679,-3.0,44.0
28.6729,-6.0,42.0
28.678,-14.0,42.0
28.6829,13.0,42.0
28.6879,29.0,42.0
28.6933,-20.0,42.0
28.6979,-43.0,42.0
28.7029,18.0,42.0
28.7078,50.0,44.0
28.7128,-1.0,44.0
28.718,-36.0,44.0
28.7231,-13.0,44.0
28.7279,7.0,44.0
28.7328,8.0,42.0
28.7378,13.0,42.0
28.7429,13.0,42.0
28.748,-13.0,42.0
28.7531,-27.0,42.0
28.7579,11.0,42.0
28.7641,29.0,42.0
28.7679,-23.0,42.0
28.7728,-36.0,42.0
28.778,34.0,42.0
28.783,52.0,42.0
28.7879,-31.0,42.0
28.7929,-60.0,44.0
28.7978,19.0,44.0
28.8029,53.0,44.0
28.808,-12.0,44.0
28.813,-38.0,44.0
28.818,11.0,44.0
28.8228,23.0,44.0
28.828,-13.0,44.0
28.833,-2.0,44.0
28.838,23.0,44.0
28.8429,-21.0,44.0
28.8478,-42.0,44.0
28.8529,31.0,44.0
28.8579,54.0,46.0
28.8629,-19.0,46.0
28.8685,-46.0,46.0
28.8757,0.0,46.0
28.8778,22.0,46.0
28.8828,10.0,46.0
28.8879,2.0,46.0
28.8931,-4.0,46.0
28.8981,-20.0,46.0
28.9029,-15.0,46.0
28.9078,24.0,46.0
28.9128,39.0,46.0
28.918,-19.0,46.0
28.9231,-55.0,46.0
28.928,8.0,46.0
28.9328,56.0,46.0
28.9378,3.0,46.0
28.9429,-45.0,48.0
28.9481,-13.0,48.0
28.9531,31.0,48.0
28.9579,22.0,48.0
28.9629,-15.0,46.0
28.9689,-24.0,46.0
28.9729,-6.0,46.0
28.9779,7.0,46.0
28.983,29.0,46.0
28.9879,29.0,46.0
28.9928,-37.0,46.0
28.9978,-66.0,48.0
29.003,18.0,48.0
29.0081,70.0,48.0
29.013,8.0,48.0
29.0182,-39.0,48.0
29.0228,-13.0,48.0
29.0278,5.0,48.0
29.033,-3.0,48.0
29.0379,7.0,48.0
29.0429,22.0,48.0
29.0479,-4.0,48.0
29.0529,-31.0,48.0
29.0578,-1.0,48.0
29.0628,33.0,48.0
29.0679,2.0,48.0
29.0737,-32.0,48.0
29.0781,-2.0,48.0
29.0829,25.0,48.0
29.0889,3.0,48.0
29.0932,-12.0,48.0
29.0979,-3.0,48.0
29.1029,0.0,46.0
29.1078,2.0,46.0
29.1128,6.0,46.0
29.1179,3.0,46.0
29.123,-12.0,46.0
29.1279,-19.0,46.0
29.1328,16.0,46.0
29.138,40.0,46.0
29.1429,-12.0,46.0
29.1478,-51.0,46.0
29.1529,2.0,46.0
29.1579,43.0,46.0
29.1628,1.0,46.0
29.1679,-27.0,46.0
29.1741,2.0,46.0
29.1788,12.0,46.0
29.1828,-14.0,46.0
29.188,0.0,46.0
29.1928,40.0,46.0
29.1978,-9.0,44.0
29.203,-71.0,46.0
29.2081,3.0,44.0
29.2129,84.0,46.0
29.218,6.0,46.0
29.2228,-67.0,46.0
29.2281,-5.0,46.0
29.233,38.0,46.0
29.238,-7.0,46.0
29.2429,-19.0,46.0
29.2479,20.0,46.0
29.2529,17.0,46.0
29.2578,-22.0,46.0
29.2628,-13.0,46.0
29.2679,19.0,44.0
29.2729,-1.0,44.0
29.278,-24.0,44.0
29.2828,20.0,42.0
29.2879,38.0,42.0
29.2932,-28.0,42.0
29.298,-49.0,44.0
29.3028,21.0,44.0
29.3078,47.0,44.0
29.3129,-5.0,44.0
29.3181,-31.0,44.0
29.3234,-9.0,44.0
29.3279,6.0,44.0
29.333,12.0,44.0
29.3379,23.0,44.0
29.3428,5.0,44.0
29.348,-46.0,42.0
29.3531,-40.0,44.0
29.358,45.0,44.0
29.3628,65.0,44.0
29.3679,-22.0,44.0
29.3729,-62.0,46.0
29.3779,-3.0,46.0
29.3829,35.0,46.0
29.3879,12.0,46.0
29.3929,-8.0,46.0
29.3978,-4.0,46.0
29.403,-4.0,46.0
29.4081,-11.0,44.0
29.413,11.0,44.0
29.418,33.0,44.0
29.4229,-23.0,44.0
29.4279,-64.0,44.0
29.4329,27.0,44.0
29.4381,88.0,46.0
29.4428,-13.0,44.0
29.4478,-84.0,46.0
29.4529,-4.0,46.0
29.458,51.0,46.0
29.4628,6.0,46.0
29.4679,-16.0,46.0
29.473,10.0,46.0
29.4779,-1.0,46.0
29.4829,-32.0,46.0
29.4878,7.0,44.0
29.4931,56.0,46.0
29.498,-8.0,44.0
29.5029,-77.0,46.0
29.5078,4.0,44.0
29.5128,80.0,46.0
29.5179,-1.0,46.0
29.523,-61.0,46.0
29.528,7.0,46.0
29.5328,39.0,48.0
29.5378,-15.0,48.0
29.543,-29.0,48.0
29.548,14.0,48.0
29.5531,22.0,46.0
29.5582,-13.0,46.0
29.5628,-6.0,46.0
29.5678,24.0,46.0
29.5728,-12.0,46.0
29.578,-45.0,46.0
29.5828,16.0,46.0
29.5891,56.0,46.0
29.5928,-6.0,46.0
29.5979,-48.0,46.0
29.603,-1.0,46.0
29.6082,32.0,46.0
29.613,2.0,46.0
29.6181,-18.0,46.0
29.6228,1.0,46.0
29.6278,4.0,46.0
29.633,-12.0,46.0
29.638,11.0,44.0
29.6429,34.0,44.0
29.6479,-26.0,44.0
29.653,-62.0,44.0
29.6581,25.0,44.0
29.6629,74.0,46.0
29.6679,-8.0,46.0
29.6731,-57.0,46.0
29.6779,-6.0,46.0
29.6831,23.0,46.0
29.6879,9.0,46.0
29.6932,5.0,46.0
29.6979,-2.0,46.0
29.7029,-21.0,46.0
29.708,-10.0,46.0
29.7128,28.0,46.0
29.7178,31.0,46.0
29.723,-32.0,46.0
29.728,-57.0,48.0
29.7328,22.0,48.0
29.7378,71.0,48.0
29.7428,3.0,48.0
29.748,-57.0,50.0
29.7529,-23.0,50.0
29.758,21.0,50.0
29.7628,19.0,50.0
29.7678,7.0,50.0
29.7729,4.0,50.0
29.7781,-17.0,50.0
29.7829,-28.0,50.0
29.7878,17.0,50.0
29.7928,46.0,50.0
29.7979,-16.0,50.0
29.8028,-62.0,50.0
29.8082,8.0,50.0
29.813,68.0,52.0
29.8179,8.0,50.0
29.8228,-53.0,52.0
29.8278,-18.0,52.0
29.833,23.0,52.0
29.8379,6.0,52.0
29.8429,-3.0,50.0
29.8479,17.0,50.0
29.8529,4.0,50.0
29.8579,-32.0,50.0
29.8631,-15.0,50.0
29.8679,33.0,50.0
29.873,16.0,50.0
29.878,-31.0,50.0
29.8828,-8.0,50.0
29.8883,32.0,50.0
29.8929,2.0,50.0
29.8992,-32.0,50.0
29.9037,1.0,50.0
29.9078,30.0,50.0
29.9128,-1.0,50.0
29.918,-20.0,50.0
29.923,3.0,50.0
29.9279,-1.0,48.0
29.9328,-16.0,48.0
29.9378,18.0,48.0
29.9428,36.0,48.0
29.948,-14.0,48.0
29.953,-45.0,48.0
29.958,-2.0,48.0
29.9628,34.0,48.0
29.9678,15.0,48.0
29.9728,-15.0,48.0
29.9779,-17.0,48.0
29.983,0.0,48.0
29.9878,9.0,48.0
29.9928,8.0,48.0
29.9979,2.0,46.0
30.0029,-7.0,46.0
30.0081,-10.0,46.0
30.0131,0.0,44.0
30.018,10.0,44.0
30.0228,5.0,44.0
30.0279,-3.0,44.0
30.0331,-3.0,44.0
30.038,-2.0,44.0
30.0428,-2.0,44.0
30.0478,0.0,44.0
30.0528,4.0,44.0
30.0579,7.0,44.0
30.0629,-1.0,42.0
30.068,-12.0,42.0
30.0729,0.0,42.0
30.078,12.0,40.0
30.0829,-1.0,40.0
30.088,-7.0,38.0
30.0929,2.0,38.0
30.0978,2.0,38.0
30.1029,-3.0,38.0
30.1078,4.0,38.0
30.114,6.0,38.0
30.1178,-10.0,38.0
30.123,-11.0,38.0
30.1282,16.0,38.0
30.1329,18.0,38.0
30.138,-23.0,38.0
30.143,-27.0,36.0
30.148,24.0,36.0
30.153,35.0,36.0
30.158,-14.0,36.0
30.1628,-36.0,36.0
30.1678,-1.0,36.0
30.173,25.0,36.0
30.178,11.0,36.0
30.183,-8.0,36.0
30.1878,-6.0,36.0
30.1928,-4.0,34.0
30.1983,-8.0,34.0
30.2037,4.0,34.0
30.208,16.0,34.0
30.2129,0.0,34.0
30.2178,-10.0,34.0
30.2228,0.0,34.0
30.2278,-4.0,32.0
30.2333,-10.0,32.0
30.2382,11.0,32.0
30.2428,17.0,32.0
30.2478,-7.0,32.0
30.253,-12.0,32.0
30.258,5.0,32.0
30.2632,3.0,32.0
30.2691,-9.0,32.0
30.273,-2.0,32.0
30.2786,11.0,32.0
30.283,6.0,32.0
30.2881,-5.0,32.0
30.2936,-6.0,30.0
30.2982,-3.0,30.0
30.3037,0.0,28.0
30.3079,2.0,28.0
30.3129,7.0,28.0
30.318,8.0,28.0
30.3236,-6.0,28.0
30.3279,-20.0,28.0
30.3328,-5.0,28.0
30.3379,24.0,28.0
30.3429,19.0,28.0
30.3482,-19.0,28.0
30.3534,-23.0,28.0
30.3587,13.0,28.0
30.3628,13.0,28.0
30.368,-10.0,28.0
30.3732,-1.0,26.0
30.3786,10.0,26.0
30.3828,-4.0,26.0
30.3883,-6.0,26.0
30.393,4.0,24.0
30.398,0.0,24.0
30.4029,-7.0,24.0
30.4085,1.0,24.0
30.4128,8.0,24.0
30.4178,1.0,24.0
30.4231,-6.0,24.0
30.4283,-4.0,24.0
30.433,1.0,22.0
30.4379,3.0,22.0
30.4433,4.0,22.0
30.4481,1.0,22.0
30.4538,-4.0,20.0
30.458,-8.0,20.0
30.4635,-3.0,20.0
30.4678,15.0,20.0
30.4737,18.0,20.0
30.4784,-12.0,20.0
30.4831,-29.0,20.0
30.4878,-2.0,20.0
30.4934,28.0,20.0
30.4983,19.0,20.0
30.503,-18.0,20.0
30.5084,-26.0,20.0
30.5129,5.0,20.0
30.518,21.0,20.0
30.5234,5.0,20.0
30.5278,-7.0,20.0
30.5329,-11.0,20.0
30.5381,-9.0,18.0
30.543,7.0,20.0
30.5481,18.0,18.0
30.5533,1.0,18.0
30.5585,-12.0,18.0
30.563,-5.0,18.0
30.568,0.0,18.0
30.573,2.0,18.0
30.5782,6.0,18.0
30.5832,1.0,18.0
30.5878,-8.0,18.0
30.5928,-4.0,18.0
30.598,7.0,18.0
30.6031,9.0,16.0
30.6084,-2.0,16.0
30.6137,-14.0,16.0
30.6181,-6.0,16.0
30.6228,10.0,16.0
30.628,13.0,16.0
30.633,0.0,16.0
30.6378,-12.0,16.0
30.6428,-9.0,16.0
30.6482,4.0,16.0
30.6548,9.0,16.0
30.6581,1.0,16.0
30.6632,-4.0,16.0
30.6683,0.0,16.0
30.6735,4.0,16.0
30.6783,-6.0,16.0
30.6831,-14.0,16.0
30.6878,7.0,16.0
30.6934,24.0,18.0
30.6978,0.0,18.0
30.7034,-22.0,18.0
30.708,-8.0,18.0
30.7128,9.0,18.0
30.7179,8.0,18.0
30.7229,3.0,18.0
30.7283,-3.0,18.0
30.7328,-7.0,18.0
30.7381,1.0,18.0
30.7431,4.0,18.0
30.7481,-6.0,18.0
30.7537,-5.0,18.0
30.758,10.0,18.0
30.763,11.0,18.0
30.7682,-8.0,18.0
30.7731,-14.0,18.0
30.7782,4.0,18.0
30.783,15.0,16.0
30.7887,-2.0,16.0
30.793,-18.0,16.0
30.798,-3.0,16.0
30.803,18.0,16.0
30.8084,14.0,16.0
30.8128,-8.0,16.0
30.8192,-19.0,16.0
30.8228,-2.0,16.0
30.8281,12.0,16.0
30.8328,5.0,16.0
30.8384,1.0,16.0
30.8428,0.0,16.0
30.8479,-12.0,16.0
30.8528,-10.0,16.0
30.8578,14.0,16.0
30.8632,15.0,16.0
30.8683,-7.0,16.0
30.8762,-14.0,16.0
30.8778,0.0,16.0
30.8828,8.0,16.0
30.8881,7.0,16.0
30.8933,-1.0,16.0
30.8978,-8.0,16.0
30.9039,-5.0,16.0
30.9081,0.0,16.0
30.9137,4.0,16.0
30.9184,14.0,16.0
30.9228,10.0,16.0
30.928,-21.0,16.0
30.9328,-30.0,16.0
30.938,8.0,16.0
30.9428,32.0,16.0
30.9482,10.0,18.0
30.9529,-12.0,18.0
30.9585,-14.0,18.0
30.9628,-10.0,18.0
30.968,0.0,18.0
30.9731,18.0,18.0
30.9782,14.0,18.0
30.9828,-13.0,16.0
30.9882,-18.0,16.0
30.9931,4.0,16.0
30.9981,18.0,16.0
31.0027,3.0,16.0
31.0084,-15.0,16.0
31.0132,-12.0,16.0
31.0185,9.0,16.0
31.023,14.0,16.0
31.028,-1.0,16.0
31.0328,-6.0,16.0
31.0378,-3.0,16.0
31.0433,-6.0,16.0
31.048,0.0,16.0
31.0532,14.0,18.0
31.058,10.0,18.0
31.0631,-10.0,18.0
31.0678,-16.0,18.0
31.0733,-4.0,18.0
31.0792,7.0,18.0
31.083,14.0,18.0
31.0881,10.0,18.0
31.0936,-7.0,18.0
31.0978,-20.0,18.0
31.1034,-12.0,18.0
31.108,10.0,18.0
31.1139,21.0,18.0
31.1179,6.0,18.0
31.1232,-10.0,18.0
31.1286,-13.0,18.0
31.1335,-7.0,18.0
31.1379,3.0,18.0
31.1428,11.0,18.0
31.1479,7.0,16.0
31.1535,-2.0,16.0
31.1583,-9.0,16.0
31.163,-9.0,16.0
31.1678,1.0,16.0
31.173,15.0,16.0
31.1782,11.0,16.0
31.1833,-13.0,16.0
31.1878,-20.0,16.0
31.1927,4.0,16.0
31.1981,21.0,18.0
31.203,2.0,18.0
31.2079,-14.0,18.0
31.2134,-2.0,18.0
31.219,6.0,18.0
31.2239,-5.0,18.0
31.2279,-6.0,18.0
31.233,18.0,18.0
31.2379,17.0,18.0
31.2429,-26.0,18.0
31.2478,-31.0,18.0
31.2528,20.0,18.0
31.2578,34.0,18.0
31.2638,-7.0,18.0
31.2681,-21.0,20.0
31.273,0.0,20.0
31.2778,8.0,18.0
31.2828,4.0,18.0
31.2879,-6.0,18.0
31.293,-9.0,18.0
31.298,8.0,20.0
31.3029,14.0,20.0
31.3078,-7.0,20.0
31.3128,-12.0,20.0
31.3179,5.0,20.0
31.323,7.0,20.0
31.3278,-4.0,20.0
31.3328,-4.0,18.0
31.3379,2.0,18.0
31.3429,0.0,18.0
31.3479,0.0,18.0
31.3529,3.0,18.0
31.3579,0.0,18.0
31.3629,-5.0,18.0
31.3678,1.0,18.0
31.3729,2.0,18.0
31.3781,-7.0,18.0
31.3829,0.0,18.0
31.3878,14.0,18.0
31.3928,4.0,18.0
31.3978,-14.0,18.0
31.403,-14.0,18.0
31.408,5.0,18.0
31.4129,20.0,18.0
31.418,7.0,18.0
31.4237,-17.0,18.0
31.4283,-18.0,18.0
31.4329,3.0,18.0
31.438,21.0,18.0
31.443,16.0,18.0
31.4479,-13.0,18.0
31.4528,-29.0,20.0
31.4578,-4.0,18.0
31.4629,22.0,20.0
31.468,17.0,20.0
31.473,1.0,20.0
31.4781,-11.0,20.0
31.4828,-21.0,20.0
31.488,-7.0,20.0
31.4931,20.0,20.0
31.4979,19.0,20.0
31.5028,-7.0,20.0
31.508,-14.0,20.0
31.513,-2.0,20.0
31.5178,0.0,20.0
31.523,-1.0,20.0
31.5282,9.0,20.0
31.5329,11.0,20.0
31.5378,-10.0,20.0
31.543,-15.0,20.0
31.5479,7.0,20.0
