Time_s,Raw_EMG,Envelope_EMG
0.0004,-43.0,14.0
0.0006,34.0,16.0
0.0008,49.0,16.0
0.0009,-7.0,16.0
0.0011,-29.0,16.0
0.0013,-13.0,16.0
0.0014,1.0,16.0
0.0016,12.0,16.0
0.0017,10.0,16.0
0.0018,0.0,16.0
0.002,-5.0,16.0
0.0021,-8.0,16.0
0.0022,-4.0,16.0
0.0023,8.0,16.0
0.0024,10.0,16.0
0.0025,-2.0,16.0
0.0027,-8.0,16.0
0.0028,-8.0,18.0
0.0031,-4.0,18.0
0.0032,15.0,18.0
0.0034,21.0,18.0
0.0035,-13.0,18.0
0.0037,-30.0,18.0
0.0038,6.0,18.0
0.0039,27.0,18.0
0.004,-1.0,18.0
0.0041,-23.0,18.0
0.0043,-7.0,18.0
0.0044,21.0,20.0
0.0047,17.0,20.0
0.005,-17.0,20.0
0.0054,-16.0,20.0
0.0056,9.0,20.0
0.0058,0.0,20.0
0.006,-5.0,20.0
0.0061,24.0,20.0
0.0063,13.0,20.0
0.0065,-38.0,20.0
0.0067,-29.0,20.0
0.0068,35.0,20.0
0.0069,40.0,20.0
0.0071,-22.0,20.0
0.0072,-37.0,22.0
0.0073,10.0,22.0
0.0074,23.0,22.0
0.0075,-6.0,22.0
0.0077,-8.0,22.0
0.0078,10.0,22.0
0.0079,1.0,22.0
0.008,-17.0,22.0
0.0081,-3.0,22.0
0.0083,19.0,22.0
0.0084,9.0,22.0
0.0085,-15.0,22.0
0.0087,-10.0,22.0
0.0088,7.0,22.0
0.0089,4.0,22.0
0.009,0.0,22.0
0.0091,0.0,22.0
0.0092,-3.0,22.0
0.0093,4.0,22.0
0.0094,9.0,22.0
0.0095,-13.0,22.0
0.0097,-17.0,22.0
0.0098,18.0,22.0
0.01,20.0,22.0
0.0102,-19.0,22.0
0.0105,-14.0,22.0
0.0108,20.0,22.0
0.0109,8.0,22.0
0.0111,-22.0,22.0
0.0113,-10.0,22.0
0.0115,16.0,22.0
0.0117,17.0,22.0
0.012,1.0,22.0
0.0122,-21.0,22.0
0.0125,-28.0,24.0
0.0127,18.0,24.0
0.0129,56.0,24.0
0.013,-6.0,24.0
0.0131,-69.0,26.0
0.0133,-13.0,26.0
0.0134,51.0,26.0
0.0137,23.0,26.0
0.0139,-11.0,26.0
0.014,-7.0,26.0
0.0142,-18.0,28.0
0.0144,-21.0,28.0
0.0145,20.0,28.0
0.0147,40.0,28.0
0.0148,-8.0,28.0
0.0149,-38.0,28.0
0.015,3.0,28.0
0.0151,25.0,30.0
0.0153,-10.0,30.0
0.0154,-12.0,30.0
0.0155,18.0,30.0
0.0156,5.0,30.0
0.0158,-19.0,30.0
0.0159,-1.0,30.0
0.016,11.0,30.0
0.0161,-2.0,30.0
0.0162,0.0,30.0
0.0163,5.0,30.0
0.0164,-9.0,30.0
0.0165,-7.0,30.0
0.0167,13.0,30.0
0.0169,8.0,30.0
0.0171,-10.0,30.0
0.0173,-11.0,30.0
0.0175,5.0,30.0
0.0177,14.0,30.0
0.0179,-1.0,30.0
0.0181,-14.0,30.0
0.0183,0.0,28.0
0.0184,9.0,28.0
0.0186,-1.0,28.0
0.0187,-4.0,28.0
0.0188,6.0,28.0
0.0189,7.0,28.0
0.019,-10.0,28.0
0.0192,-20.0,28.0
0.0193,8.0,28.0
0.0194,37.0,28.0
0.0195,7.0,28.0
0.0196,-41.0,30.0
0.0198,-32.0,30.0
0.0199,24.0,30.0
0.02,47.0,30.0
0.0201,3.0,28.0
0.0202,-39.0,28.0
0.0204,-22.0,28.0
0.0205,14.0,28.0
0.0206,18.0,28.0
0.0207,6.0,28.0
0.0208,7.0,28.0
0.0209,-3.0,28.0
0.021,-29.0,30.0
0.0212,-19.0,30.0
0.0213,28.0,30.0
0.0214,39.0,30.0
0.0215,-5.0,30.0
0.0216,-36.0,30.0
0.0218,-12.0,30.0
0.0219,17.0,30.0
0.022,15.0,30.0
0.0221,-5.0,30.0
0.0222,-10.0,30.0
0.0223,6.0,30.0
0.0224,8.0,30.0
0.0226,-11.0,30.0
0.0228,-6.0,30.0
0.0231,13.0,30.0
0.0233,-2.0,30.0
0.0234,-14.0,30.0
0.0237,10.0,30.0
0.0239,21.0,30.0
0.0242,-5.0,30.0
0.0243,-27.0,30.0
0.0245,-9.0,30.0
0.0246,22.0,30.0
0.0247,17.0,30.0
0.0248,-8.0,30.0
0.025,-8.0,30.0
0.0251,-4.0,30.0
0.0252,-9.0,30.0
0.0253,7.0,30.0
0.0254,21.0,28.0
0.0256,-5.0,28.0
0.0258,-23.0,28.0
0.026,6.0,28.0
0.0262,22.0,28.0
0.0264,-11.0,28.0
0.0266,-21.0,28.0
0.0267,17.0,28.0
0.0268,14.0,28.0
0.027,-17.0,28.0
0.0271,-1.0,28.0
0.0272,17.0,28.0
0.0273,-6.0,28.0
0.0274,-17.0,28.0
0.0275,4.0,28.0
0.0277,14.0,28.0
0.0278,4.0,28.0
0.0279,-9.0,28.0
0.028,-11.0,28.0
0.0281,4.0,28.0
0.0282,10.0,28.0
0.0284,-2.0,28.0
0.0285,0.0,28.0
0.0288,9.0,28.0
0.029,-10.0,28.0
0.0292,-25.0,28.0
0.0294,9.0,28.0
0.0296,34.0,28.0
0.0297,3.0,28.0
0.0299,-26.0,28.0
0.0301,-10.0,28.0
0.0302,7.0,28.0
0.0303,2.0,28.0
0.0304,3.0,28.0
0.0305,13.0,28.0
0.0306,0.0,28.0
0.0308,-21.0,28.0
0.0309,-8.0,28.0
0.0311,16.0,28.0
0.0312,16.0,26.0
0.0314,-4.0,26.0
0.0315,-19.0,26.0
0.0317,-9.0,26.0
0.0318,17.0,26.0
0.0321,17.0,26.0
0.0323,-7.0,26.0
0.0325,-15.0,26.0
0.0327,-6.0,26.0
0.0328,7.0,26.0
0.033,17.0,24.0
0.0331,4.0,24.0
0.0334,-21.0,24.0
0.0336,-11.0,24.0
0.0338,17.0,24.0
0.0339,10.0,24.0
0.0341,-11.0,24.0
0.0343,0.0,24.0
0.0345,12.0,24.0
0.0346,-17.0,24.0
0.0348,-23.0,24.0
0.0349,28.0,24.0
0.0351,37.0,24.0
0.0353,-23.0,26.0
0.0356,-40.0,26.0
0.0358,5.0,26.0
0.036,26.0,26.0
0.0363,7.0,26.0
0.0367,-4.0,26.0
0.0368,-9.0,26.0
0.0369,-16.0,26.0
0.037,5.0,26.0
0.0372,34.0,26.0
0.0373,1.0,26.0
0.0374,-45.0,28.0
0.0375,-13.0,28.0
0.0376,42.0,28.0
0.0378,23.0,28.0
0.0379,-25.0,28.0
0.038,-23.0,28.0
0.0381,8.0,28.0
0.0383,10.0,28.0
0.0384,-3.0,28.0
0.0385,2.0,28.0
0.0386,13.0,28.0
0.0388,-4.0,28.0
0.0389,-20.0,28.0
0.039,-5.0,28.0
0.0391,11.0,28.0
0.0392,17.0,28.0
0.0393,8.0,26.0
0.0395,-22.0,26.0
0.0396,-28.0,26.0
0.0397,19.0,26.0
0.0398,38.0,26.0
0.04,-14.0,26.0
0.0401,-41.0,28.0
0.0402,5.0,28.0
0.0403,34.0,28.0
0.0404,8.0,28.0
0.0405,-13.0,28.0
0.0406,-21.0,28.0
0.041,-14.0,26.0
0.0412,24.0,28.0
0.0414,36.0,28.0
0.0417,-14.0,28.0
0.0421,-42.0,28.0
0.0423,0.0,28.0
0.0425,33.0,28.0
0.0427,11.0,28.0
0.0429,-16.0,28.0
0.0431,-12.0,28.0
0.0432,-1.0,28.0
0.0434,2.0,28.0
0.0435,11.0,28.0
0.0436,11.0,28.0
0.0437,-9.0,28.0
0.0439,-22.0,28.0
0.044,-1.0,28.0
0.0441,22.0,28.0
0.0442,11.0,28.0
0.0443,-10.0,28.0
0.0445,-11.0,28.0
0.0446,-5.0,28.0
0.0447,0.0,28.0
0.0448,11.0,28.0
0.0449,11.0,28.0
0.045,-3.0,28.0
0.0452,-11.0,28.0
0.0453,-8.0,28.0
0.0454,-3.0,28.0
0.0455,13.0,26.0
0.0456,20.0,28.0
0.0457,-8.0,26.0
0.0459,-28.0,28.0
0.046,-2.0,26.0
0.0461,17.0,26.0
0.0462,8.0,26.0
0.0463,1.0,26.0
0.0464,0.0,26.0
0.0465,-6.0,26.0
0.0466,-14.0,26.0
0.0468,-7.0,26.0
0.0469,11.0,26.0
0.047,25.0,26.0
0.0472,10.0,26.0
0.0473,-30.0,28.0
0.0475,-35.0,28.0
0.0476,21.0,28.0
0.0478,42.0,28.0
0.0479,-8.0,28.0
0.0481,-29.0,28.0
0.0482,0.0,28.0
0.0484,7.0,28.0
0.0485,2.0,28.0
0.0486,10.0,28.0
0.0488,1.0,28.0
0.0489,-17.0,28.0
0.049,-5.0,28.0
0.0492,13.0,28.0
0.0492,2.0,28.0
0.0494,-5.0,28.0
0.0495,3.0,28.0
0.0496,0.0,28.0
0.0497,-5.0,28.0
0.0498,4.0,28.0
0.0499,1.0,28.0
0.05,-11.0,28.0
0.0501,0.0,26.0
0.0502,12.0,26.0
0.0503,2.0,26.0
0.0504,1.0,26.0
0.0505,-2.0,26.0
0.0507,-19.0,26.0
0.0508,-5.0,26.0
0.0509,23.0,26.0
0.051,10.0,26.0
0.0511,-14.0,26.0
0.0513,-3.0,26.0
0.0514,11.0,26.0
0.0515,-4.0,26.0
0.0516,-15.0,26.0
0.0517,3.0,26.0
0.0518,17.0,26.0
0.0519,4.0,26.0
0.052,-14.0,26.0
0.0522,-10.0,26.0
0.0523,10.0,26.0
0.0524,15.0,26.0
0.0525,-7.0,26.0
0.0526,-26.0,26.0
0.0527,0.0,26.0
0.0528,40.0,26.0
0.053,15.0,26.0
0.0531,-46.0,26.0
0.0533,-32.0,26.0
0.0534,32.0,26.0
0.0536,34.0,26.0
0.0537,-10.0,26.0
0.0539,-14.0,26.0
0.0542,7.0,26.0
0.0543,-8.0,26.0
0.0545,-27.0,26.0
0.0546,10.0,26.0
0.0547,41.0,26.0
0.0548,1.0,26.0
0.055,-27.0,26.0
0.0551,0.0,26.0
0.0552,1.0,26.0
0.0553,-19.0,26.0
0.0554,11.0,26.0
0.0556,30.0,26.0
0.0557,-10.0,26.0
0.0559,-25.0,26.0
0.0561,14.0,26.0
0.0562,19.0,26.0
0.0563,-23.0,26.0
0.0564,-22.0,26.0
0.0565,29.0,28.0
0.0567,29.0,28.0
0.0568,-28.0,28.0
0.0569,-31.0,28.0
0.057,25.0,28.0
0.0571,23.0,28.0
0.0573,-29.0,28.0
0.0574,-14.0,28.0
0.0575,37.0,28.0
0.0576,17.0,28.0
0.0577,-33.0,28.0
0.0579,-25.0,28.0
0.058,12.0,28.0
0.0581,28.0,28.0
0.0582,17.0,28.0
0.0584,-21.0,28.0
0.0585,-38.0,28.0
0.0587,6.0,28.0
0.0589,42.0,28.0
0.0591,8.0,28.0
0.0593,-30.0,28.0
0.0595,-12.0,28.0
0.0597,12.0,28.0
0.0599,5.0,28.0
0.06,3.0,28.0
0.0603,4.0,28.0
0.0605,-14.0,28.0
0.0607,-15.0,28.0
0.0609,16.0,28.0
0.061,22.0,28.0
0.0635,-10.0,28.0
0.0686,-28.0,28.0
0.0735,2.0,28.0
0.0786,25.0,28.0
0.0836,1.0,28.0
0.0886,-8.0,28.0
0.0935,6.0,28.0
0.0986,-10.0,28.0
0.1037,-22.0,28.0
0.1086,14.0,30.0
0.1139,24.0,30.0
0.1185,-8.0,30.0
0.1237,-11.0,30.0
0.1285,5.0,30.0
0.1336,0.0,28.0
0.1387,-8.0,28.0
0.1437,-1.0,28.0
0.1488,10.0,28.0
0.1536,5.0,28.0
0.1585,-8.0,28.0
0.1637,-4.0,28.0
0.1686,8.0,28.0
0.1736,2.0,28.0
0.1788,-10.0,28.0
0.1836,-4.0,28.0
0.1885,14.0,28.0
0.1937,8.0,28.0
0.1987,-17.0,28.0
0.2036,-11.0,28.0
0.2086,13.0,26.0
0.2135,10.0,28.0
0.2185,0.0,26.0
0.2236,-3.0,26.0
0.2286,-12.0,26.0
0.2336,-9.0,26.0
0.2386,13.0,26.0
0.2437,18.0,28.0
0.2488,-3.0,26.0
0.2539,-15.0,28.0
0.2585,0.0,26.0
0.2637,6.0,26.0
0.2686,-12.0,28.0
0.2735,-5.0,28.0
0.2787,24.0,28.0
0.2837,14.0,28.0
0.2886,-20.0,28.0
0.2936,-18.0,28.0
0.2986,8.0,28.0
0.3035,8.0,28.0
0.3085,-1.0,28.0
0.3136,5.0,28.0
0.319,0.0,28.0
0.3235,-16.0,28.0
0.3285,-1.0,28.0
0.3335,25.0,28.0
0.3385,3.0,28.0
0.3441,-28.0,28.0
0.3487,-10.0,28.0
0.3536,19.0,28.0
0.3586,16.0,28.0
0.3636,1.0,28.0
0.3687,-11.0,28.0
0.3736,-23.0,28.0
0.3786,-4.0,28.0
0.3836,35.0,28.0
0.3885,22.0,30.0
0.3938,-33.0,30.0
0.3986,-30.0,30.0
0.4036,17.0,30.0
0.4086,24.0,30.0
0.4137,1.0,30.0
0.4188,-6.0,30.0
0.4237,-9.0,30.0
0.4287,-13.0,30.0
0.4336,1.0,28.0
0.4386,21.0,28.0
0.4435,8.0,28.0
0.449,-17.0,28.0
0.4538,-7.0,28.0
0.4585,11.0,28.0
0.4636,-1.0,28.0
0.4686,-8.0,28.0
0.4735,7.0,28.0
0.4788,10.0,28.0
0.4835,-5.0,26.0
0.4886,-16.0,26.0
0.4937,0.0,26.0
0.4987,22.0,26.0
0.5035,4.0,26.0
0.5086,-30.0,28.0
0.5136,-5.0,26.0
0.5187,37.0,28.0
0.5235,6.0,28.0
0.5286,-37.0,28.0
0.5336,-10.0,28.0
0.5386,23.0,28.0
0.5436,9.0,26.0
0.5486,-3.0,26.0
0.5536,0.0,26.0
0.5586,-5.0,26.0
0.5636,-8.0,26.0
0.5685,-2.0,26.0
0.5735,0.0,24.0
0.5786,17.0,24.0
0.5836,21.0,24.0
0.5886,-20.0,24.0
0.5936,-37.0,24.0
0.5986,6.0,24.0
0.6038,33.0,24.0
0.6086,7.0,24.0
0.6136,-14.0,24.0
0.6186,-7.0,24.0
0.6235,0.0,24.0
0.6286,0.0,24.0
0.6337,1.0,22.0
0.6386,-2.0,22.0
0.6437,-9.0,22.0
0.6487,7.0,22.0
0.6535,23.0,22.0
0.6585,0.0,22.0
0.6636,-26.0,22.0
0.6686,-15.0,22.0
0.6735,12.0,22.0
0.6788,17.0,22.0
0.6845,0.0,22.0
0.6893,-5.0,22.0
0.6938,5.0,22.0
0.6986,-2.0,22.0
0.7037,-22.0,22.0
0.7088,-10.0,22.0
0.714,29.0,22.0
0.72,32.0,22.0
0.7236,-18.0,22.0
0.7286,-43.0,22.0
0.7337,0.0,22.0
0.7386,38.0,24.0
0.7437,10.0,24.0
0.7487,-24.0,24.0
0.7536,-12.0,22.0
0.7585,7.0,22.0
0.7636,4.0,22.0
0.7687,7.0,22.0
0.7735,14.0,24.0
0.7786,-3.0,24.0
0.7836,-27.0,24.0
0.7886,-20.0,24.0
0.7937,17.0,24.0
0.7993,34.0,24.0
0.804,2.0,24.0
0.8087,-24.0,24.0
0.8139,-8.0,24.0
0.8186,8.0,24.0
0.8236,5.0,24.0
0.8292,2.0,24.0
0.8336,-6.0,24.0
0.8385,-17.0,24.0
0.8439,6.0,24.0
0.8487,34.0,24.0
0.854,9.0,24.0
0.8597,-39.0,26.0
0.864,-32.0,26.0
0.8688,25.0,26.0
0.8737,42.0,26.0
0.8788,-2.0,26.0
0.8841,-29.0,26.0
0.8893,-13.0,26.0
0.8945,3.0,26.0
0.8988,15.0,26.0
0.9037,20.0,26.0
0.9086,-6.0,26.0
0.914,-32.0,28.0
0.919,-4.0,26.0
0.9235,32.0,28.0
0.9286,14.0,26.0
0.9335,-19.0,26.0
0.939,-19.0,28.0
0.9442,0.0,26.0
0.9491,16.0,28.0
0.9535,7.0,28.0
0.9585,-9.0,28.0
0.9636,3.0,28.0
0.9687,13.0,28.0
0.9736,-18.0,28.0
0.9792,-27.0,28.0
0.9837,23.0,28.0
0.9889,29.0,28.0
0.9937,-24.0,28.0
0.9986,-8.0,28.0
1.004,34.0,28.0
1.0087,-12.0,28.0
1.0139,-44.0,28.0
1.0186,14.0,28.0
1.0238,34.0,28.0
1.029,-8.0,28.0
1.0339,-10.0,28.0
1.0388,12.0,28.0
1.0436,-4.0,28.0
1.0487,-21.0,28.0
1.0538,2.0,28.0
1.0591,21.0,28.0
1.0641,8.0,28.0
1.0687,-15.0,28.0
1.0737,-16.0,28.0
1.0785,17.0,28.0
1.0837,18.0,28.0
1.089,-31.0,28.0
1.0939,-12.0,28.0
1.0986,48.0,30.0
1.1036,6.0,30.0
1.1088,-55.0,30.0
1.1142,-3.0,30.0
1.1189,49.0,30.0
1.124,2.0,30.0
1.1293,-36.0,30.0
1.134,-4.0,30.0
1.1388,26.0,30.0
1.1442,13.0,32.0
1.1485,-19.0,30.0
1.1535,-31.0,32.0
1.1586,15.0,30.0
1.1637,41.0,32.0
1.1687,-18.0,32.0
1.1736,-35.0,32.0
1.1786,29.0,32.0
1.1836,18.0,32.0
1.1897,-40.0,32.0
1.1939,-5.0,32.0
1.1987,37.0,32.0
1.2036,4.0,32.0
1.2085,-13.0,34.0
1.2136,-7.0,34.0
1.2186,-22.0,34.0
1.2236,-4.0,34.0
1.2287,40.0,34.0
1.2336,25.0,34.0
1.2386,-29.0,34.0
1.2437,-31.0,34.0
1.2487,7.0,34.0
1.2535,18.0,34.0
1.2585,6.0,34.0
1.2636,-4.0,34.0
1.2685,-12.0,34.0
1.2735,1.0,34.0
1.2786,19.0,34.0
1.2841,-2.0,34.0
1.2887,-25.0,34.0
1.2936,0.0,34.0
1.2989,25.0,34.0
1.3036,4.0,34.0
1.3087,-16.0,34.0
1.3138,-4.0,34.0
1.3194,6.0,34.0
1.3235,-1.0,34.0
1.3286,0.0,34.0
1.3336,8.0,34.0
1.3387,0.0,34.0
1.3435,-10.0,34.0
1.3486,-6.0,34.0
1.3538,0.0,32.0
1.359,5.0,32.0
1.3642,18.0,32.0
1.3686,5.0,32.0
1.3739,-29.0,32.0
1.3795,-18.0,32.0
1.3836,26.0,32.0
1.3886,22.0,32.0
1.3937,-13.0,32.0
1.3994,-16.0,32.0
1.4046,-2.0,32.0
1.4085,2.0,32.0
1.4135,13.0,32.0
1.4186,14.0,32.0
1.4236,-13.0,32.0
1.4291,-24.0,32.0
1.4344,0.0,32.0
1.4387,16.0,32.0
1.4435,19.0,32.0
1.4486,8.0,32.0
1.454,-27.0,32.0
1.4587,-33.0,32.0
1.4638,17.0,32.0
1.4685,41.0,34.0
1.4735,0.0,34.0
1.479,-26.0,34.0
1.4839,-7.0,34.0
1.4887,6.0,32.0
1.4935,1.0,32.0
1.4986,2.0,32.0
1.5036,4.0,32.0
1.5087,-5.0,32.0
1.5143,-4.0,30.0
1.5191,10.0,30.0
1.524,6.0,30.0
1.5287,-12.0,30.0
1.5343,-12.0,30.0
1.5386,3.0,30.0
1.5437,14.0,30.0
1.5491,16.0,30.0
1.5536,-8.0,30.0
1.5585,-42.0,30.0
1.5637,1.0,30.0
1.5686,61.0,32.0
1.5739,3.0,30.0
1.5788,-61.0,32.0
1.5835,-6.0,32.0
1.5886,40.0,32.0
1.5937,2.0,32.0
1.5986,-16.0,32.0
1.604,8.0,32.0
1.6087,8.0,32.0
1.6136,-11.0,32.0
1.6187,-16.0,32.0
1.6239,1.0,32.0
1.6286,27.0,32.0
1.6336,8.0,32.0
1.6385,-29.0,32.0
1.6435,-10.0,30.0
1.6488,14.0,30.0
1.6537,8.0,30.0
1.6588,15.0,30.0
1.6638,-1.0,30.0
1.6687,-36.0,30.0
1.6737,-13.0,30.0
1.6785,30.0,30.0
1.6836,29.0,32.0
1.6885,0.0,30.0
1.6935,-36.0,32.0
1.6985,-26.0,32.0
1.7035,26.0,32.0
1.7088,29.0,32.0
1.7136,-11.0,32.0
1.7186,-16.0,32.0
1.7235,4.0,32.0
1.7285,10.0,32.0
1.7335,2.0,32.0
1.7386,-10.0,30.0
1.7437,-12.0,30.0
1.7486,0.0,30.0
1.7536,14.0,30.0
1.7586,21.0,30.0
1.7643,0.0,30.0
1.7686,-35.0,30.0
1.7738,-25.0,30.0
1.7786,41.0,30.0
1.7836,52.0,30.0
1.7886,-55.0,32.0
1.7936,-75.0,32.0
1.7988,79.0,32.0
1.8036,88.0,34.0
1.8086,-88.0,34.0
1.8135,-74.0,36.0
1.8185,75.0,36.0
1.8236,32.0,36.0
1.8287,-53.0,36.0
1.8336,2.0,36.0
1.8385,27.0,36.0
1.844,-9.0,36.0
1.8486,12.0,36.0
1.8535,12.0,36.0
1.8587,-51.0,36.0
1.8636,-33.0,38.0
1.8686,54.0,38.0
1.8736,57.0,38.0
1.8786,-14.0,38.0
1.8836,-57.0,38.0
1.8887,-40.0,38.0
1.8937,29.0,38.0
1.8985,80.0,40.0
1.9035,5.0,40.0
1.9087,-100.0,42.0
1.9138,-32.0,42.0
1.9186,99.0,44.0
1.9236,55.0,44.0
1.9285,-61.0,44.0
1.9335,-50.0,46.0
1.9385,1.0,44.0
1.9442,-10.0,44.0
1.949,25.0,46.0
1.9536,97.0,46.0
1.9585,19.0,46.0
1.9636,-121.0,48.0
1.9688,-86.0,50.0
1.9737,58.0,50.0
1.9788,79.0,52.0
1.9835,-1.0,52.0
1.9885,15.0,52.0
1.9938,36.0,52.0
1.9988,-95.0,54.0
2.0037,-118.0,56.0
2.0088,80.0,56.0
2.0136,130.0,58.0
2.0186,-23.0,58.0
2.0238,-52.0,58.0
2.0286,7.0,58.0
2.0337,-36.0,58.0
2.0385,-30.0,60.0
2.0435,70.0,60.0
2.0492,39.0,60.0
2.0538,-55.0,62.0
2.0586,-9.0,62.0
2.0636,31.0,62.0
2.0686,-38.0,62.0
2.0736,-29.0,62.0
2.0787,58.0,62.0
2.0838,40.0,64.0
2.0885,-23.0,64.0
2.0936,-22.0,64.0
2.0986,-32.0,64.0
2.1035,-38.0,64.0
2.1085,48.0,64.0
2.1135,90.0,66.0
2.1186,-14.0,66.0
2.1236,-76.0,66.0
2.1286,-15.0,66.0
2.1335,13.0,66.0
2.1386,0.0,66.0
2.1437,28.0,66.0
2.1498,37.0,68.0
2.1535,-18.0,68.0
2.1585,-46.0,68.0
2.1635,-7.0,68.0
2.1685,9.0,68.0
2.1737,14.0,68.0
2.1785,39.0,68.0
2.1835,-9.0,68.0
2.1885,-74.0,70.0
2.1935,8.0,70.0
2.1987,83.0,70.0
2.2037,-11.0,70.0
2.2086,-59.0,70.0
2.2136,20.0,70.0
2.2186,6.0,70.0
2.2236,-47.0,70.0
2.2287,35.0,70.0
2.2336,80.0,72.0
2.2389,-21.0,72.0
2.2445,-70.0,72.0
2.2485,-47.0,74.0
2.2541,-18.0,74.0
2.2586,99.0,74.0
2.2636,140.0,76.0
2.2685,-69.0,78.0
2.2736,-187.0,80.0
2.2785,-6.0,80.0
2.2837,119.0,82.0
2.2887,41.0,82.0
2.2936,-14.0,82.0
2.2985,-20.0,82.0
2.3035,-46.0,82.0
2.3086,0.0,82.0
2.3135,72.0,84.0
2.3187,5.0,82.0
2.3235,-93.0,84.0
2.3286,-22.0,84.0
2.3335,90.0,84.0
2.3386,65.0,86.0
2.3436,-52.0,86.0
2.3486,-115.0,88.0
2.3536,6.0,88.0
2.359,136.0,90.0
2.3644,22.0,90.0
2.3691,-114.0,92.0
2.3736,-20.0,92.0
2.3791,82.0,92.0
2.3835,-4.0,92.0
2.3886,-72.0,94.0
2.3936,24.0,94.0
2.3986,64.0,94.0
2.4036,-33.0,94.0
2.4087,-21.0,94.0
2.4136,53.0,94.0
2.4188,-54.0,96.0
2.4237,-90.0,96.0
2.4286,120.0,96.0
2.4336,116.0,98.0
2.4387,-147.0,98.0
2.4436,-111.0,98.0
2.4486,137.0,100.0
2.4537,91.0,100.0
2.4585,-89.0,100.0
2.4636,-61.0,100.0
2.4685,15.0,100.0
2.4735,-5.0,100.0
2.4786,30.0,100.0
2.4836,100.0,102.0
2.4885,-13.0,102.0
2.4936,-150.0,104.0
2.4985,-37.0,104.0
2.5035,100.0,104.0
2.5085,71.0,104.0
2.5135,19.0,104.0
2.5185,-66.0,104.0
2.5235,-125.0,106.0
2.5285,43.0,106.0
2.5335,143.0,108.0
2.5385,-44.0,108.0
2.5437,-82.0,108.0
2.5485,93.0,108.0
2.5535,18.0,108.0
2.5585,-150.0,108.0
2.564,-3.0,108.0
2.5687,165.0,110.0
2.5736,27.0,110.0
2.5785,-134.0,112.0
2.5835,-57.0,112.0
2.5885,92.0,114.0
2.5937,79.0,112.0
2.5988,-46.0,114.0
2.6037,-87.0,112.0
2.6086,-15.0,112.0
2.6136,67.0,112.0
2.6185,76.0,112.0
2.6238,-21.0,112.0
2.6286,-96.0,114.0
2.6337,-23.0,114.0
2.6387,65.0,112.0
2.6435,32.0,112.0
2.6488,-25.0,110.0
2.6537,-12.0,108.0
2.6587,13.0,108.0
2.6637,-4.0,108.0
2.6687,-18.0,108.0
2.6735,6.0,108.0
2.6787,18.0,108.0
2.6841,-12.0,106.0
2.6887,-15.0,106.0
2.6937,35.0,106.0
2.6986,22.0,106.0
2.7036,-56.0,106.0
2.7088,-36.0,106.0
2.7137,47.0,106.0
2.7186,35.0,106.0
2.7235,-6.0,106.0
2.7285,-7.0,106.0
2.7336,-38.0,106.0
2.7388,-38.0,106.0
2.7437,52.0,106.0
2.7486,74.0,106.0
2.7537,-19.0,106.0
2.7585,-76.0,106.0
2.7644,-43.0,106.0
2.7685,35.0,106.0
2.7746,94.0,108.0
2.7786,27.0,108.0
2.7836,-90.0,108.0
2.7885,-61.0,110.0
2.7937,41.0,110.0
2.7989,33.0,110.0
2.8035,-8.0,110.0
2.8086,21.0,110.0
2.8136,27.0,110.0
2.8186,-39.0,110.0
2.8237,-60.0,110.0
2.8287,10.0,110.0
2.8336,57.0,110.0
2.8387,20.0,110.0
2.8435,-25.0,110.0
2.8486,-16.0,108.0
2.8537,13.0,108.0
2.8587,-4.0,108.0
2.8635,-35.0,108.0
2.8685,7.0,108.0
2.8735,54.0,108.0
2.8785,7.0,108.0
2.8838,-42.0,106.0
2.8888,-19.0,106.0
2.8936,7.0,106.0
2.8985,20.0,106.0
2.9036,24.0,104.0
2.9087,-17.0,102.0
2.9138,-38.0,100.0
2.9187,19.0,100.0
2.9235,38.0,100.0
2.9285,-27.0,98.0
2.9336,-30.0,100.0
2.9387,37.0,100.0
2.9436,23.0,100.0
2.9487,-48.0,100.0
2.9537,-23.0,100.0
2.9586,52.0,100.0
2.9636,32.0,98.0
2.9692,-41.0,100.0
2.9735,-41.0,98.0
2.9786,13.0,98.0
2.9837,38.0,98.0
2.9885,25.0,96.0
2.9936,-20.0,96.0
2.9987,-63.0,94.0
3.0037,-4.0,94.0
3.0087,78.0,94.0
3.0136,20.0,94.0
3.0185,-55.0,94.0
3.0239,-12.0,94.0
3.0285,4.0,92.0
3.0337,-13.0,92.0
3.0387,52.0,92.0
3.0435,41.0,92.0
3.0487,-87.0,94.0
3.0536,-53.0,94.0
3.0587,87.0,94.0
3.0637,30.0,94.0
3.0685,-63.0,92.0
3.0735,31.0,90.0
3.0786,40.0,90.0
3.0837,-98.0,90.0
3.0887,-32.0,88.0
3.0938,124.0,88.0
3.0985,28.0,86.0
3.1036,-96.0,88.0
3.1085,-16.0,88.0
3.1138,45.0,88.0
3.1186,0.0,88.0
3.1235,-9.0,86.0
3.1285,4.0,86.0
3.1335,-1.0,84.0
3.1386,8.0,84.0
3.1436,10.0,82.0
3.1486,-27.0,82.0
3.1535,-33.0,82.0
3.1585,20.0,80.0
3.1636,52.0,80.0
3.1686,18.0,80.0
3.1737,-51.0,78.0
3.1786,-54.0,78.0
3.1835,43.0,78.0
3.1885,56.0,76.0
3.1937,-46.0,78.0
3.1988,-35.0,76.0
3.2036,58.0,76.0
3.2086,8.0,74.0
3.2135,-66.0,74.0
3.2185,7.0,72.0
3.2237,57.0,72.0
3.2289,-5.0,72.0
3.2337,-16.0,70.0
3.2386,0.0,70.0
3.2435,-43.0,68.0
3.2485,-10.0,68.0
3.2536,83.0,68.0
3.2585,32.0,68.0
3.2637,-82.0,70.0
3.2685,-44.0,68.0
3.2735,53.0,68.0
3.2786,40.0,68.0
3.2838,-13.0,68.0
3.2885,-31.0,68.0
3.2936,-35.0,68.0
3.2985,26.0,68.0
3.3047,83.0,70.0
3.3098,-18.0,70.0
3.3137,-101.0,72.0
3.3185,7.0,72.0
3.3237,72.0,72.0
3.3286,-13.0,72.0
3.3335,-29.0,72.0
3.3385,38.0,72.0
3.3436,20.0,72.0
3.3486,-44.0,72.0
3.3537,-39.0,72.0
3.3585,11.0,72.0
3.3635,48.0,72.0
3.3687,33.0,72.0
3.3735,-31.0,72.0
3.3785,-56.0,72.0
3.3836,3.0,72.0
3.3886,47.0,72.0
3.3939,14.0,72.0
3.3985,-22.0,70.0
3.4036,-14.0,70.0
3.4085,15.0,70.0
3.4136,11.0,68.0
3.4186,-29.0,68.0
3.4237,-27.0,68.0
3.4289,32.0,68.0
3.4335,53.0,68.0
3.4385,-2.0,66.0
3.4435,-55.0,68.0
3.4485,-35.0,68.0
3.4536,20.0,68.0
3.4587,38.0,68.0
3.4636,19.0,66.0
3.4686,-4.0,66.0
3.4736,-32.0,66.0
3.4786,-28.0,66.0
3.4837,23.0,66.0
3.4887,31.0,66.0
3.4935,-19.0,66.0
3.4986,-8.0,66.0
3.5036,33.0,66.0
3.5087,-11.0,66.0
3.514,-48.0,66.0
3.5186,11.0,66.0
3.5235,44.0,66.0
3.5286,-6.0,66.0
3.5336,-19.0,66.0
3.5386,19.0,66.0
3.5436,0.0,66.0
3.5485,-43.0,66.0
3.5535,1.0,66.0
3.5585,47.0,66.0
3.5636,-1.0,66.0
3.5686,-31.0,66.0
3.5735,19.0,66.0
3.5787,24.0,66.0
3.5835,-32.0,66.0
3.5885,-39.0,66.0
3.5935,10.0,66.0
3.5987,46.0,66.0
3.6036,35.0,66.0
3.6086,-25.0,66.0
3.6136,-57.0,66.0
3.6185,-2.0,66.0
3.6235,36.0,66.0
3.6286,0.0,66.0
3.6336,-9.0,64.0
3.6385,16.0,64.0
3.6435,5.0,64.0
3.6486,-8.0,64.0
3.6537,-10.0,62.0
3.6587,-17.0,62.0
3.6636,1.0,62.0
3.6685,16.0,62.0
3.6734,1.0,62.0
3.6787,20.0,62.0
3.6837,26.0,62.0
3.6886,-52.0,60.0
3.6937,-64.0,62.0
3.6985,45.0,60.0
3.7036,67.0,62.0
3.7086,-22.0,60.0
3.7135,-39.0,60.0
3.7187,15.0,60.0
3.7236,45.0,60.0
3.7286,-6.0,58.0
3.7335,-110.0,58.0
3.7386,-39.0,58.0
3.7436,153.0,60.0
3.7486,107.0,62.0
3.7537,-91.0,62.0
3.7586,-124.0,64.0
3.7636,-29.0,64.0
3.7687,48.0,64.0
3.7736,86.0,66.0
3.7787,58.0,66.0
3.7835,-37.0,68.0
3.7895,-99.0,68.0
3.7935,-37.0,68.0
3.7987,69.0,70.0
3.8038,62.0,70.0
3.8086,-36.0,70.0
3.8135,-43.0,70.0
3.8185,39.0,70.0
3.8237,20.0,70.0
3.8288,-63.0,70.0
3.8337,-11.0,68.0
3.8388,76.0,70.0
3.8435,5.0,68.0
3.8486,-65.0,70.0
3.8537,20.0,68.0
3.8588,48.0,70.0
3.8636,-60.0,70.0
3.8687,-45.0,70.0
3.8737,83.0,70.0
3.8787,60.0,72.0
3.8838,-67.0,72.0
3.8886,-71.0,74.0
3.8935,22.0,72.0
3.8986,50.0,72.0
3.9035,10.0,72.0
3.9087,-8.0,70.0
3.9138,-10.0,70.0
3.9187,-11.0,70.0
3.9235,-2.0,70.0
3.9286,1.0,70.0
3.9335,1.0,68.0
3.9387,10.0,68.0
3.9436,4.0,68.0
3.9485,-16.0,68.0
3.9537,3.0,66.0
3.9586,22.0,66.0
3.9635,-15.0,64.0
3.9685,-31.0,66.0
3.9735,8.0,64.0
3.9787,32.0,64.0
3.9836,21.0,64.0
3.9885,-31.0,64.0
3.9935,-58.0,64.0
3.9987,31.0,66.0
4.0037,79.0,66.0
4.0087,-31.0,66.0
4.0135,-72.0,66.0
4.0185,26.0,66.0
4.0235,44.0,66.0
4.0287,-20.0,66.0
4.0337,-17.0,66.0
4.0385,21.0,66.0
4.0435,-2.0,66.0
4.0486,-21.0,66.0
4.0536,23.0,66.0
4.0587,16.0,66.0
4.0635,-54.0,66.0
4.0685,-27.0,66.0
4.0734,68.0,66.0
4.0786,56.0,68.0
4.0836,-45.0,68.0
4.0886,-86.0,68.0
4.0936,19.0,68.0
4.0986,114.0,70.0
4.1035,-23.0,70.0
4.1087,-145.0,72.0
4.1136,29.0,72.0
4.1186,154.0,74.0
4.1235,-22.0,74.0
4.1286,-123.0,74.0
4.1336,24.0,74.0
4.1387,67.0,76.0
4.1436,-51.0,76.0
4.1507,-14.0,76.0
4.1535,85.0,76.0
4.1586,-21.0,76.0
4.1635,-111.0,78.0
4.169,36.0,78.0
4.1738,114.0,80.0
4.1786,-34.0,80.0
4.1837,-91.0,82.0
4.1886,35.0,82.0
4.1936,57.0,82.0
4.1992,-51.0,82.0
4.2038,-36.0,82.0
4.2086,71.0,84.0
4.2136,38.0,84.0
4.2185,-74.0,84.0
4.2235,-60.0,84.0
4.2288,44.0,86.0
4.2338,83.0,86.0
4.2385,0.0,86.0
4.2435,-74.0,86.0
4.2487,-14.0,86.0
4.2537,36.0,86.0
4.2588,-18.0,86.0
4.2637,-15.0,86.0
4.2686,65.0,86.0
4.2736,47.0,88.0
4.2787,-88.0,88.0
4.284,-115.0,90.0
4.2887,71.0,90.0
4.2937,150.0,94.0
4.2986,-22.0,94.0
4.3038,-103.0,94.0
4.3086,-25.0,94.0
4.3138,9.0,96.0
4.3188,39.0,96.0
4.3236,61.0,96.0
4.3286,-23.0,96.0
4.3336,-77.0,96.0
4.3386,17.0,96.0
4.3437,39.0,94.0
4.3488,-49.0,96.0
4.3536,24.0,94.0
4.3586,103.0,96.0
4.3636,-57.0,96.0
4.3688,-128.0,98.0
4.3737,19.0,96.0
4.3786,78.0,98.0
4.3836,48.0,96.0
4.3885,19.0,94.0
4.3936,-68.0,94.0
4.3987,-90.0,94.0
4.4036,19.0,94.0
4.4088,92.0,94.0
4.4136,50.0,94.0
4.4184,-51.0,94.0
4.4236,-86.0,94.0
4.4287,5.0,92.0
4.4337,66.0,94.0
4.4386,23.0,92.0
4.4436,-16.0,92.0
4.4485,-36.0,92.0
4.4538,-27.0,92.0
4.4586,50.0,92.0
4.4637,64.0,92.0
4.4687,-55.0,92.0
4.4736,-101.0,94.0
4.4786,5.0,92.0
4.4837,86.0,94.0
4.4887,92.0,94.0
4.4938,16.0,94.0
4.4986,-149.0,96.0
4.5042,-130.0,96.0
4.5087,118.0,98.0
4.5139,135.0,98.0
4.5186,-65.0,98.0
4.5238,-32.0,98.0
4.5286,59.0,98.0
4.5336,-53.0,98.0
4.5386,-61.0,98.0
4.5438,35.0,100.0
4.5488,-3.0,100.0
4.5538,33.0,100.0
4.5586,115.0,102.0
4.5636,-58.0,102.0
4.5688,-177.0,104.0
4.5737,36.0,106.0
4.5787,133.0,108.0
4.5836,-30.0,108.0
4.5886,-21.0,108.0
4.5935,77.0,108.0
4.599,-77.0,110.0
4.6039,-146.0,112.0
4.6086,101.0,112.0
4.6136,174.0,116.0
4.6187,-53.0,116.0
4.6238,-141.0,118.0
4.6288,-4.0,118.0
4.6336,73.0,118.0
4.6386,18.0,118.0
4.6436,-23.0,116.0
4.6485,8.0,116.0
4.6537,19.0,116.0
4.6588,-23.0,116.0
4.6638,-24.0,114.0
4.6686,8.0,114.0
4.6736,-16.0,114.0
4.6786,2.0,114.0
4.6836,84.0,116.0
4.6887,13.0,116.0
4.6937,-105.0,116.0
4.6986,-27.0,118.0
4.7036,64.0,118.0
4.7091,10.0,116.0
4.714,-18.0,116.0
4.7188,20.0,116.0
4.7236,13.0,116.0
4.7286,-15.0,114.0
4.7336,-18.0,114.0
4.7389,-34.0,112.0
4.7438,-15.0,112.0
4.7487,87.0,112.0
4.7536,64.0,112.0
4.7587,-116.0,112.0
4.7637,-73.0,112.0
4.7686,126.0,112.0
4.7739,51.0,112.0
4.7787,-105.0,114.0
4.7836,-24.0,114.0
4.7886,39.0,114.0
4.7937,-19.0,112.0
4.7989,25.0,112.0
4.8038,79.0,112.0
4.8087,-28.0,112.0
4.8136,-111.0,112.0
4.8186,-36.0,112.0
4.8236,82.0,112.0
4.8286,110.0,112.0
4.8337,-10.0,112.0
4.8389,-124.0,114.0
4.8436,-48.0,114.0
4.8486,82.0,114.0
4.8537,67.0,114.0
4.8587,-45.0,114.0
4.8638,-56.0,114.0
4.8686,39.0,114.0
4.8736,23.0,112.0
4.8787,-29.0,112.0
4.8837,47.0,112.0
4.8888,-19.0,112.0
4.8939,-157.0,114.0
4.8986,99.0,116.0
4.9037,268.0,120.0
4.9088,-148.0,122.0
4.9138,-302.0,126.0
4.9187,132.0,126.0
4.9237,214.0,128.0
4.9286,-101.0,128.0
4.9336,-68.0,126.0
4.9386,116.0,128.0
4.9437,-10.0,126.0
4.9488,-157.0,128.0
4.9536,-33.0,128.0
4.9586,148.0,130.0
4.9636,123.0,132.0
4.9688,-58.0,132.0
4.9738,-144.0,134.0
4.9788,-38.0,134.0
4.9836,72.0,134.0
4.9886,40.0,134.0
4.9936,-2.0,134.0
4.9988,58.0,132.0
5.0037,17.0,132.0
5.0086,-146.0,132.0
5.0136,-74.0,134.0
5.0186,118.0,134.0
5.0236,64.0,134.0
5.0286,-8.0,134.0
5.0338,34.0,134.0
5.0388,-57.0,134.0
5.0436,-127.0,134.0
5.0486,32.0,134.0
5.0539,123.0,134.0
5.0587,20.0,134.0
5.0638,-42.0,134.0
5.0688,-37.0,134.0
5.0736,-32.0,134.0
5.0785,15.0,134.0
5.0838,40.0,134.0
5.0888,12.0,134.0
5.0937,3.0,134.0
5.0988,-13.0,132.0
5.1036,-28.0,132.0
5.1086,-19.0,132.0
5.1138,-20.0,130.0
5.1187,42.0,130.0
5.1236,106.0,132.0
5.1286,-3.0,130.0
5.1336,-138.0,132.0
5.1387,-53.0,130.0
5.1436,113.0,130.0
5.1487,37.0,128.0
5.1537,-136.0,128.0
5.1586,31.0,128.0
5.1635,244.0,132.0
5.1687,-39.0,132.0
5.1738,-327.0,136.0
5.1786,-26.0,134.0
5.1838,294.0,138.0
5.1886,73.0,140.0
5.1935,-202.0,142.0
5.199,-57.0,142.0
5.2038,156.0,144.0
5.2086,21.0,140.0
5.2137,-181.0,144.0
5.2186,-22.0,142.0
5.2237,211.0,144.0
5.2288,75.0,144.0
5.2338,-166.0,146.0
5.2387,-134.0,148.0
5.2436,30.0,146.0
5.2485,129.0,146.0
5.2536,110.0,144.0
5.2586,-56.0,144.0
5.2638,-139.0,144.0
5.2687,14.0,146.0
5.2736,36.0,144.0
5.2786,-78.0,146.0
5.2837,87.0,146.0
5.2888,185.0,150.0
5.2936,-117.0,150.0
5.2987,-191.0,154.0
5.3036,63.0,154.0
5.3086,56.0,154.0
5.3139,-13.0,154.0
5.3187,99.0,156.0
5.3237,-27.0,156.0
5.3286,-160.0,158.0
5.3336,111.0,158.0
5.339,165.0,160.0
5.3438,-173.0,162.0
5.3492,-168.0,164.0
5.3542,98.0,166.0
5.3585,96.0,166.0
5.3636,56.0,168.0
5.3686,109.0,168.0
5.3736,-125.0,170.0
5.3786,-338.0,176.0
5.3836,39.0,176.0
5.3886,400.0,180.0
5.3936,100.0,180.0
5.3989,-249.0,182.0
5.4038,-142.0,184.0
5.4088,47.0,182.0
5.4136,67.0,184.0
5.4186,41.0,182.0
5.4236,-4.0,182.0
5.429,-44.0,182.0
5.4337,26.0,182.0
5.4387,97.0,184.0
5.4436,-28.0,182.0
5.4486,-199.0,184.0
5.4539,-104.0,184.0
5.4588,190.0,188.0
5.4637,257.0,190.0
5.4686,-15.0,188.0
5.4736,-225.0,192.0
5.4787,-164.0,192.0
5.4837,27.0,192.0
5.4888,194.0,194.0
5.4938,130.0,194.0
5.4986,-113.0,196.0
5.5036,-134.0,198.0
5.5086,35.0,198.0
5.5138,42.0,198.0
5.5185,-13.0,198.0
5.5237,44.0,198.0
5.5286,42.0,198.0
5.5336,-68.0,196.0
5.5388,-86.0,196.0
5.5438,29.0,192.0
5.5487,92.0,192.0
5.5536,34.0,188.0
5.5586,-31.0,186.0
5.5638,-54.0,182.0
5.5686,-47.0,182.0
5.5736,15.0,182.0
5.5788,74.0,180.0
5.5837,20.0,180.0
5.5886,-50.0,180.0
5.5937,-4.0,178.0
5.5989,33.0,176.0
5.6038,-23.0,176.0
5.6089,-42.0,176.0
5.6135,7.0,172.0
5.6186,42.0,172.0
5.6236,39.0,172.0
5.6289,-10.0,172.0
5.6337,-59.0,172.0
5.6388,-24.0,172.0
5.6436,37.0,172.0
5.6486,23.0,170.0
5.6536,-9.0,170.0
5.6585,10.0,168.0
5.6638,11.0,168.0
5.6688,-36.0,168.0
5.6735,-33.0,168.0
5.6785,25.0,168.0
5.6836,40.0,166.0
5.6887,11.0,166.0
5.6937,-16.0,164.0
5.6987,-36.0,164.0
5.7036,-16.0,164.0
5.7086,29.0,164.0
5.714,30.0,164.0
5.7187,-3.0,164.0
5.7237,-29.0,164.0
5.7286,-31.0,164.0
5.7335,25.0,164.0
5.7387,68.0,164.0
5.7438,-15.0,164.0
5.7486,-93.0,166.0
5.7536,0.0,166.0
5.7586,98.0,166.0
5.7635,7.0,164.0
5.7685,-96.0,166.0
5.7736,-16.0,164.0
5.7787,88.0,164.0
5.7837,32.0,164.0
5.7886,-61.0,164.0
5.7936,-37.0,162.0
5.7988,20.0,162.0
5.8037,18.0,158.0
5.8086,9.0,158.0
5.8136,5.0,152.0
5.8186,-18.0,152.0
5.8237,-13.0,148.0
5.8287,22.0,148.0
5.8338,14.0,144.0
5.8393,-34.0,144.0
5.8437,-26.0,142.0
5.8486,36.0,142.0
5.8536,44.0,140.0
5.8588,-15.0,140.0
5.8637,-39.0,138.0
5.8686,-7.0,136.0
5.8736,13.0,134.0
5.8785,9.0,132.0
5.8835,5.0,132.0
5.8887,5.0,130.0
5.8936,0.0,128.0
5.8986,-12.0,128.0
5.9035,-21.0,126.0
5.9086,2.0,126.0
5.914,34.0,126.0
5.9186,16.0,124.0
5.9236,-25.0,124.0
5.9286,-25.0,122.0
5.9335,-5.0,120.0
5.9397,10.0,116.0
5.9441,37.0,116.0
5.9492,20.0,116.0
5.9537,-41.0,116.0
5.9586,-32.0,114.0
5.9636,21.0,114.0
5.9689,12.0,112.0
5.974,-11.0,110.0
5.9789,11.0,108.0
5.9837,18.0,106.0
5.9887,-6.0,104.0
5.9936,-8.0,102.0
5.9991,-16.0,100.0
6.004,-35.0,100.0
6.009,20.0,100.0
6.014,80.0,98.0
6.0187,1.0,94.0
6.0238,-87.0,94.0
6.0295,-19.0,88.0
6.0341,58.0,88.0
6.0388,10.0,84.0
6.0436,-24.0,82.0
6.0488,19.0,82.0
6.0538,6.0,80.0
6.0587,-49.0,80.0
6.0639,-8.0,80.0
6.0688,56.0,80.0
6.0736,20.0,80.0
6.0785,-34.0,80.0
6.0841,-21.0,80.0
6.0886,2.0,76.0
6.094,2.0,74.0
6.099,18.0,72.0
6.1037,22.0,68.0
6.1088,-24.0,68.0
6.1142,-39.0,66.0
6.119,21.0,64.0
6.1235,36.0,64.0
6.1285,-7.0,60.0
6.1338,0.0,58.0
6.1388,-5.0,58.0
6.1437,-54.0,56.0
6.1516,-1.0,56.0
6.1539,79.0,56.0
6.1586,11.0,56.0
6.1637,-57.0,56.0
6.1689,7.0,56.0
6.1741,29.0,54.0
6.1786,-41.0,54.0
6.1837,-26.0,54.0
6.1886,49.0,54.0
6.1937,36.0,54.0
6.1999,-24.0,54.0
6.204,-34.0,54.0
6.2088,-9.0,52.0
6.2139,19.0,52.0
6.2187,33.0,52.0
6.2238,3.0,52.0
6.2293,-33.0,52.0
6.234,-21.0,52.0
6.2386,7.0,52.0
6.2435,19.0,52.0
6.2485,28.0,50.0
6.2538,8.0,50.0
6.259,-47.0,50.0
6.2638,-46.0,52.0
6.2687,24.0,52.0
6.2736,56.0,52.0
6.2786,19.0,52.0
6.2841,-22.0,50.0
6.289,-35.0,52.0
6.2935,-23.0,52.0
6.2992,5.0,52.0
6.3036,32.0,52.0
6.3087,42.0,52.0
6.3143,-9.0,52.0
6.3191,-75.0,52.0
6.3235,-2.0,52.0
6.3285,87.0,52.0
6.3337,-15.0,52.0
6.339,-87.0,54.0
6.3443,42.0,54.0
6.3486,76.0,54.0
6.3538,-54.0,54.0
6.3585,-49.0,56.0
6.3643,55.0,56.0
6.3697,11.0,56.0
6.3735,-54.0,56.0
6.3786,18.0,56.0
6.3842,47.0,56.0
6.3887,-30.0,54.0
6.3937,-28.0,56.0
6.3995,32.0,54.0
6.4036,5.0,54.0
6.4085,-36.0,54.0
6.4136,-1.0,54.0
6.4185,38.0,52.0
6.4239,7.0,52.0
6.429,-28.0,52.0
6.4336,2.0,50.0
6.4385,19.0,50.0
6.4435,-34.0,52.0
6.4486,-24.0,52.0
6.4542,57.0,52.0
6.4591,37.0,52.0
6.4639,-50.0,54.0
6.4685,-37.0,54.0
6.4736,29.0,54.0
6.4786,21.0,54.0
6.4836,-18.0,54.0
6.4891,-10.0,52.0
6.4939,17.0,52.0
6.4987,11.0,52.0
6.5036,0.0,52.0
6.5089,-1.0,52.0
6.5149,-31.0,52.0
6.519,-29.0,52.0
6.524,43.0,52.0
6.5286,56.0,54.0
6.5335,-20.0,54.0
6.539,-46.0,54.0
6.5437,-7.0,54.0
6.5487,11.0,54.0
6.5541,13.0,54.0
6.5588,8.0,54.0
6.5636,-3.0,54.0
6.5695,1.0,54.0
6.5735,5.0,54.0
6.5786,-23.0,54.0
6.5835,-29.0,54.0
6.5885,31.0,54.0
6.5937,58.0,54.0
6.5994,-26.0,54.0
6.6043,-70.0,54.0
6.6088,22.0,54.0
6.6137,64.0,56.0
6.6188,-15.0,56.0
6.6239,-35.0,56.0
6.6286,1.0,56.0
6.634,-20.0,56.0
6.6391,0.0,56.0
6.6436,80.0,56.0
6.6487,18.0,56.0
6.6546,-105.0,56.0
6.6592,-32.0,58.0
6.6644,91.0,58.0
6.6686,14.0,58.0
6.6737,-65.0,58.0
6.6787,22.0,58.0
6.684,52.0,58.0
6.6885,-46.0,58.0
6.6943,-47.0,58.0
6.6986,46.0,58.0
6.7036,41.0,60.0
6.7087,-38.0,60.0
6.7142,-39.0,60.0
6.7195,34.0,60.0
6.7235,49.0,60.0
6.7285,-24.0,60.0
6.7335,-55.0,62.0
6.739,0.0,60.0
6.7443,37.0,60.0
6.7488,26.0,62.0
6.7537,0.0,60.0
6.7586,-36.0,60.0
6.7638,-36.0,60.0
6.7689,26.0,60.0
6.774,53.0,62.0
6.7786,-6.0,62.0
6.7836,-44.0,62.0
6.7885,-8.0,62.0
6.7936,20.0,60.0
6.7995,9.0,60.0
6.804,0.0,60.0
6.8094,-1.0,60.0
6.8136,-5.0,60.0
6.8186,-1.0,58.0
6.8237,-3.0,58.0
6.829,-9.0,58.0
6.8341,12.0,58.0
6.8385,26.0,58.0
6.8435,-11.0,58.0
6.8485,-36.0,58.0
6.8539,3.0,58.0
6.8593,32.0,58.0
6.8635,5.0,58.0
6.8686,-16.0,58.0
6.8736,-9.0,56.0
6.8788,-1.0,56.0
6.8844,5.0,56.0
6.8886,11.0,56.0
6.8935,1.0,56.0
6.8985,-12.0,56.0
6.9035,-9.0,56.0
6.9086,9.0,54.0
6.9145,15.0,54.0
6.9191,-5.0,54.0
6.9239,-16.0,54.0
6.9286,1.0,54.0
6.9335,10.0,54.0
6.9387,2.0,54.0
6.9444,0.0,52.0
6.9485,-10.0,52.0
6.9535,-16.0,52.0
6.9586,25.0,52.0
6.9636,35.0,52.0
6.9686,-44.0,52.0
6.9736,-58.0,52.0
6.9786,60.0,52.0
6.9836,79.0,52.0
6.9886,-53.0,52.0
6.9936,-74.0,52.0
6.9988,29.0,52.0
7.0037,32.0,52.0
7.0086,-20.0,52.0
7.0135,17.0,50.0
7.0185,33.0,52.0
7.0235,-37.0,50.0
7.0289,-43.0,52.0
7.0336,22.0,52.0
7.0385,31.0,52.0
7.0435,3.0,52.0
7.0485,0.0,50.0
7.0537,-15.0,50.0
7.0587,-28.0,50.0
7.0642,6.0,50.0
7.0685,31.0,50.0
7.0735,8.0,50.0
7.0787,-8.0,50.0
7.0835,-8.0,50.0
7.0885,-22.0,50.0
7.0937,-12.0,50.0
7.0985,38.0,50.0
7.1035,42.0,50.0
7.1086,-29.0,50.0
7.114,-55.0,50.0
7.1187,5.0,50.0
7.1236,38.0,50.0
7.1285,7.0,50.0
7.1335,-7.0,50.0
7.1384,2.0,50.0
7.1441,-11.0,50.0
7.1486,-20.0,50.0
7.1535,9.0,50.0
7.1585,25.0,50.0
7.1635,-4.0,48.0
7.1701,-19.0,48.0
7.1739,4.0,48.0
7.1785,9.0,48.0
7.1835,-12.0,48.0
7.1884,3.0,48.0
7.1937,30.0,48.0
7.1989,-10.0,48.0
7.2036,-64.0,48.0
7.2086,-5.0,48.0
7.2135,91.0,50.0
7.2185,34.0,50.0
7.2236,-86.0,50.0
7.2291,-39.0,52.0
7.2336,56.0,52.0
7.2385,11.0,50.0
7.2435,-27.0,50.0
7.2487,22.0,50.0
7.2536,6.0,50.0
7.2587,-40.0,50.0
7.2635,14.0,50.0
7.2692,47.0,50.0
7.2737,-30.0,50.0
7.2789,-51.0,50.0
7.2837,25.0,50.0
7.2886,46.0,50.0
7.2936,0.0,48.0
7.2986,-28.0,48.0
7.3036,-23.0,48.0
7.3087,7.0,48.0
7.3139,33.0,48.0
7.3187,2.0,46.0
7.3235,-35.0,46.0
7.3285,8.0,46.0
7.3335,45.0,46.0
7.3386,-27.0,46.0
7.3436,-63.0,46.0
7.3486,31.0,46.0
7.3535,63.0,46.0
7.3585,-13.0,46.0
7.3635,-24.0,46.0
7.3688,-8.0,46.0
7.3736,-30.0,44.0
7.3785,9.0,46.0
7.3835,58.0,46.0
7.3887,12.0,46.0
7.3937,-34.0,46.0
7.399,-22.0,46.0
7.4039,-19.0,46.0
7.4086,-9.0,44.0
7.4135,49.0,44.0
7.4185,55.0,46.0
7.4236,-39.0,46.0
7.4289,-65.0,46.0
7.4336,31.0,46.0
7.4386,46.0,48.0
7.4436,-45.0,48.0
7.4485,-49.0,48.0
7.4537,45.0,50.0
7.4587,80.0,50.0
7.4637,-10.0,50.0
7.4685,-88.0,52.0
7.4741,-31.0,52.0
7.4787,50.0,52.0
7.484,42.0,54.0
7.4886,-5.0,52.0
7.4936,-19.0,52.0
7.4986,-6.0,52.0
7.5036,-6.0,52.0
7.5088,-10.0,52.0
7.5139,7.0,52.0
7.5185,26.0,52.0
7.5235,4.0,52.0
7.5285,-29.0,52.0
7.5335,-4.0,52.0
7.5385,35.0,54.0
7.5436,0.0,54.0
7.5485,-46.0,54.0
7.5535,-1.0,54.0
7.5586,41.0,54.0
7.5637,-25.0,54.0
7.5688,-30.0,54.0
7.5736,95.0,56.0
7.5785,45.0,56.0
7.5836,-141.0,58.0
7.5885,-72.0,60.0
7.5935,103.0,62.0
7.5988,48.0,62.0
7.6037,-20.0,62.0
7.6086,34.0,62.0
7.6136,-13.0,60.0
7.6186,-100.0,62.0
7.6238,-20.0,60.0
7.6286,87.0,60.0
7.6336,58.0,60.0
7.6385,-30.0,60.0
7.6435,-47.0,60.0
7.6485,13.0,60.0
7.6538,17.0,60.0
7.6586,-50.0,60.0
7.6636,-24.0,60.0
7.6685,71.0,62.0
7.6735,44.0,62.0
7.6792,-35.0,62.0
7.6836,-15.0,62.0
7.6885,-2.0,62.0
7.6936,-43.0,62.0
7.6986,-20.0,62.0
7.7035,47.0,62.0
7.7085,65.0,64.0
7.7137,24.0,64.0
7.7185,-50.0,64.0
7.7238,-102.0,66.0
7.7286,-30.0,66.0
7.7336,139.0,68.0
7.7387,127.0,70.0
7.7437,-144.0,70.0
7.7488,-194.0,74.0
7.7535,133.0,74.0
7.7585,220.0,78.0
7.7635,-102.0,78.0
7.7687,-196.0,82.0
7.7737,43.0,82.0
7.7787,105.0,84.0
7.784,19.0,84.0
7.7885,36.0,84.0
7.7936,-33.0,84.0
7.7987,-136.0,86.0
7.8037,-9.0,86.0
7.8085,122.0,88.0
7.8136,43.0,88.0
7.8185,-52.0,90.0
7.8236,-22.0,90.0
7.8286,41.0,90.0
7.8336,-14.0,90.0
7.8386,-100.0,92.0
7.8435,6.0,90.0
7.8486,136.0,92.0
7.8535,47.0,92.0
7.8587,-78.0,92.0
7.8637,-82.0,92.0
7.8686,-36.0,92.0
7.8735,45.0,92.0
7.8787,111.0,94.0
7.8835,45.0,94.0
7.8886,-84.0,96.0
7.8937,-106.0,96.0
7.8986,-5.0,96.0
7.9035,83.0,98.0
7.9086,59.0,98.0
7.9141,-16.0,98.0
7.9187,-31.0,96.0
7.9236,-25.0,96.0
7.9286,-23.0,96.0
7.9335,38.0,98.0
7.9386,41.0,98.0
7.9436,-51.0,98.0
7.9488,-33.0,98.0
7.9537,56.0,98.0
7.9585,44.0,100.0
7.9636,-25.0,98.0
7.9685,-66.0,100.0
7.9738,-25.0,100.0
7.9787,61.0,100.0
7.9835,31.0,100.0
7.9885,-44.0,100.0
7.9937,39.0,100.0
7.9986,72.0,100.0
8.0037,-132.0,102.0
8.0088,-143.0,104.0
8.0136,166.0,106.0
8.0185,189.0,110.0
8.0237,-111.0,110.0
8.0287,-152.0,112.0
8.0337,14.0,112.0
8.0385,53.0,112.0
8.0435,51.0,112.0
8.0486,30.0,114.0
8.0535,-71.0,114.0
8.0586,-58.0,114.0
8.0637,73.0,114.0
8.0688,50.0,114.0
8.0736,-80.0,114.0
8.0786,-38.0,114.0
8.0835,82.0,114.0
8.089,32.0,114.0
8.0937,-45.0,114.0
8.0986,-16.0,114.0
8.1037,-38.0,114.0
8.1087,-43.0,114.0
8.1141,102.0,114.0
8.1185,123.0,116.0
8.1236,-67.0,116.0
8.1286,-134.0,118.0
8.1335,-32.0,118.0
8.1385,48.0,118.0
8.1438,85.0,120.0
8.1527,55.0,120.0
8.1534,-61.0,122.0
8.1585,-105.0,122.0
8.1635,10.0,124.0
8.1687,100.0,124.0
8.1737,20.0,124.0
8.1786,-74.0,126.0
8.1835,-16.0,126.0
8.1885,42.0,126.0
8.1935,-16.0,126.0
8.1987,-12.0,124.0
8.2035,69.0,126.0
8.2087,10.0,126.0
8.2136,-101.0,126.0
8.2185,-49.0,126.0
8.2235,44.0,124.0
8.2288,76.0,124.0
8.2337,88.0,124.0
8.2387,-34.0,124.0
8.2436,-181.0,126.0
8.2486,-52.0,126.0
8.2536,152.0,128.0
8.2587,104.0,128.0
8.2636,-41.0,128.0
8.2685,-69.0,128.0
8.2735,-44.0,128.0
8.2785,-24.0,128.0
8.2836,36.0,128.0
8.2887,90.0,130.0
8.2936,39.0,130.0
8.2985,-71.0,130.0
8.3036,-89.0,132.0
8.3084,2.0,130.0
8.3136,59.0,130.0
8.3189,33.0,130.0
8.3235,17.0,130.0
8.3285,-2.0,130.0
8.3336,-76.0,130.0
8.3386,-51.0,132.0
8.3437,75.0,132.0
8.3486,68.0,132.0
8.3536,-26.0,132.0
8.3585,-34.0,132.0
8.3636,-25.0,130.0
8.3687,-14.0,130.0
8.3735,48.0,128.0
8.3786,32.0,128.0
8.3835,-45.0,126.0
8.3885,-2.0,122.0
8.3936,45.0,122.0
8.3985,-44.0,118.0
8.4048,-57.0,118.0
8.4092,67.0,116.0
8.4136,55.0,116.0
8.4187,-72.0,116.0
8.4236,-25.0,116.0
8.4288,78.0,116.0
8.4337,-16.0,116.0
8.4386,-73.0,114.0
8.4435,50.0,116.0
8.449,57.0,114.0
8.4537,-55.0,114.0
8.4587,-47.0,114.0
8.4637,24.0,114.0
8.4687,37.0,114.0
8.4735,29.0,114.0
8.4787,-7.0,114.0
8.4836,-72.0,114.0
8.4888,-42.0,112.0
8.4935,83.0,114.0
8.4985,85.0,114.0
8.5036,-64.0,114.0
8.5085,-95.0,114.0
8.5138,28.0,114.0
8.5187,71.0,114.0
8.5235,3.0,112.0
8.5287,-37.0,112.0
8.5336,-27.0,110.0
8.5385,0.0,110.0
8.5435,46.0,110.0
8.5486,59.0,110.0
8.5535,-46.0,110.0
8.5585,-148.0,112.0
8.5635,13.0,112.0
8.5689,221.0,116.0
8.5736,55.0,116.0
8.5785,-210.0,118.0
8.5836,-120.0,120.0
8.5885,116.0,120.0
8.5935,131.0,122.0
8.5985,-47.0,122.0
8.6045,-91.0,122.0
8.6085,83.0,124.0
8.6136,56.0,124.0
8.6185,-172.0,126.0
8.6235,-63.0,126.0
8.6288,201.0,128.0
8.6336,76.0,128.0
8.6385,-155.0,130.0
8.6437,-39.0,128.0
8.6485,106.0,128.0
8.6536,-45.0,126.0
8.6585,-87.0,124.0
8.6636,124.0,124.0
8.6685,63.0,124.0
8.6735,-165.0,126.0
8.6785,-11.0,126.0
8.6839,181.0,128.0
8.6885,-29.0,128.0
8.6936,-182.0,128.0
8.6987,14.0,128.0
8.7044,146.0,130.0
8.7092,42.0,130.0
8.7137,-57.0,128.0
8.7186,-82.0,130.0
8.7236,-46.0,130.0
8.7285,80.0,130.0
8.7335,85.0,130.0
8.7386,-68.0,132.0
8.7435,-21.0,130.0
8.7485,85.0,132.0
8.7536,-99.0,132.0
8.7588,-121.0,132.0
8.7638,200.0,134.0
8.7686,147.0,134.0
8.7735,-235.0,136.0
8.7785,-158.0,138.0
8.7836,187.0,140.0
8.7886,137.0,142.0
8.7935,-77.0,142.0
8.7985,-60.0,142.0
8.8036,-26.0,142.0
8.8085,-33.0,140.0
8.8135,68.0,142.0
8.8186,82.0,142.0
8.8236,-49.0,142.0
8.8288,-82.0,142.0
8.8335,10.0,142.0
8.8385,54.0,142.0
8.8435,43.0,142.0
8.8485,-3.0,142.0
8.8538,-131.0,142.0
8.8586,-53.0,142.0
8.8637,248.0,146.0
8.8685,86.0,146.0
8.8736,-332.0,150.0
8.8786,-96.0,152.0
8.8835,320.0,154.0
8.8886,109.0,154.0
8.8935,-222.0,156.0
8.8985,-135.0,156.0
8.9035,115.0,156.0
8.9085,176.0,158.0
8.9138,-15.0,158.0
8.9187,-223.0,162.0
8.9237,-152.0,162.0
8.9287,192.0,164.0
8.9336,354.0,170.0
8.9385,-25.0,168.0
8.9439,-418.0,174.0
8.9486,-156.0,176.0
8.9536,297.0,180.0
8.9585,192.0,182.0
8.9635,-121.0,184.0
8.9685,-84.0,186.0
8.9737,-7.0,184.0
8.9787,-73.0,184.0
8.9835,103.0,186.0
8.9885,229.0,188.0
8.9937,-204.0,190.0
8.9988,-379.0,196.0
9.0038,262.0,200.0
9.0085,473.0,206.0
9.0136,-213.0,210.0
9.0185,-396.0,214.0
9.0235,146.0,216.0
9.0287,155.0,218.0
9.0336,-184.0,222.0
9.0385,37.0,220.0
9.0436,245.0,224.0
9.0485,-37.0,224.0
9.0536,-186.0,226.0
9.0587,-69.0,226.0
9.0636,55.0,226.0
9.0686,177.0,228.0
9.0735,18.0,228.0
9.0787,-279.0,230.0
9.0837,-22.0,230.0
9.0887,352.0,234.0
9.0935,17.0,234.0
9.0986,-328.0,238.0
9.1035,-11.0,238.0
9.1087,201.0,242.0
9.1138,-14.0,240.0
9.1185,-34.0,242.0
9.1235,36.0,240.0
9.1288,-119.0,242.0
9.1335,-35.0,242.0
9.1386,220.0,244.0
9.1435,32.0,242.0
9.1485,-230.0,244.0
9.1535,-28.0,244.0
9.1585,163.0,246.0
9.1636,-5.0,246.0
9.1687,-71.0,246.0
9.1736,68.0,248.0
9.1787,-20.0,248.0
9.1835,-116.0,248.0
9.1885,124.0,250.0
9.1935,117.0,252.0
9.1987,-204.0,252.0
9.2035,-99.0,254.0
9.2087,167.0,252.0
9.2135,59.0,252.0
9.2191,-24.0,250.0
9.2235,46.0,248.0
9.2285,-65.0,248.0
9.2335,-183.0,248.0
9.2385,-4.0,248.0
9.2435,240.0,250.0
9.2485,154.0,252.0
9.2536,-177.0,254.0
9.2585,-232.0,254.0
9.2635,82.0,254.0
9.2686,198.0,254.0
9.2736,-47.0,254.0
9.2785,-132.0,254.0
9.2834,59.0,254.0
9.2887,86.0,254.0
9.2936,-49.0,254.0
9.2987,-42.0,252.0
9.3034,5.0,250.0
9.3086,-14.0,250.0
9.3137,29.0,248.0
9.3185,47.0,248.0
9.3236,-41.0,246.0
9.3294,-25.0,246.0
9.334,57.0,244.0
9.3388,-22.0,244.0
9.3434,-60.0,244.0
9.3485,58.0,244.0
9.3535,16.0,242.0
9.3586,-91.0,242.0
9.3635,45.0,242.0
9.3685,119.0,244.0
9.3737,-69.0,244.0
9.3786,-109.0,244.0
9.3835,55.0,244.0
9.3884,51.0,244.0
9.3934,-40.0,244.0
9.3988,12.0,242.0
9.4036,37.0,238.0
9.4085,-35.0,238.0
9.4136,-25.0,234.0
9.4184,24.0,232.0
9.4248,6.0,228.0
9.4291,-18.0,226.0
9.4336,-7.0,226.0
9.4385,20.0,226.0
9.4435,38.0,226.0
9.4499,-6.0,224.0
9.4549,-67.0,224.0
9.4585,-26.0,224.0
9.4635,65.0,224.0
9.4685,55.0,224.0
9.4736,-44.0,224.0
9.4785,-62.0,224.0
9.4835,32.0,224.0
9.4886,49.0,226.0
9.4936,-35.0,224.0
9.4985,-29.0,224.0
9.5035,41.0,220.0
9.5085,12.0,218.0
9.5141,-33.0,214.0
9.5186,-5.0,212.0
9.5236,7.0,208.0
9.5285,5.0,206.0
9.5335,28.0,204.0
9.5386,0.0,202.0
9.5435,-39.0,200.0
9.5486,-7.0,198.0
9.5535,14.0,198.0
9.5585,-5.0,194.0
9.5635,18.0,192.0
9.5687,42.0,190.0
9.5736,-23.0,184.0
9.5785,-68.0,184.0
9.5838,3.0,178.0
9.5885,54.0,176.0
9.5935,6.0,172.0
9.5985,-12.0,170.0
9.6056,15.0,168.0
9.6086,-10.0,166.0
9.6135,-44.0,168.0
9.6191,-1.0,166.0
9.6236,44.0,166.0
9.63,21.0,162.0
9.6335,-15.0,160.0
9.6385,-25.0,154.0
9.6435,-12.0,150.0
9.6485,17.0,142.0
9.6536,24.0,140.0
9.6586,-10.0,134.0
9.6636,-22.0,132.0
9.6685,-4.0,130.0
9.6735,4.0,126.0
9.6785,30.0,126.0
9.6835,40.0,124.0
9.6885,-46.0,124.0
9.6937,-91.0,122.0
9.6985,34.0,122.0
9.7035,105.0,122.0
9.7084,-13.0,120.0
9.7139,-74.0,120.0
9.7186,11.0,116.0
9.7236,32.0,116.0
9.7286,-29.0,112.0
9.7335,-13.0,112.0
9.7386,40.0,106.0
9.7435,15.0,106.0
9.7488,-32.0,104.0
9.7536,-5.0,104.0
9.7586,25.0,104.0
9.7635,-32.0,104.0
9.7686,-46.0,102.0
9.7736,82.0,104.0
9.7786,100.0,102.0
9.7836,-110.0,102.0
9.7886,-157.0,102.0
9.7936,85.0,102.0
9.7987,169.0,102.0
9.8037,-17.0,102.0
9.8086,-112.0,104.0
9.8137,-47.0,102.0
9.8185,11.0,102.0
9.8237,58.0,102.0
9.8289,91.0,102.0
9.8335,5.0,100.0
9.8385,-151.0,98.0
9.8435,-107.0,98.0
9.8485,138.0,98.0
9.8536,171.0,100.0
9.8587,-83.0,102.0
9.8638,-158.0,102.0
9.8685,41.0,102.0
9.8735,98.0,102.0
9.8786,-24.0,102.0
9.8835,-25.0,98.0
9.8885,14.0,96.0
9.8935,-47.0,94.0
9.8986,-6.0,90.0
9.9035,109.0,90.0
9.9085,24.0,88.0
9.9135,-125.0,90.0
9.9186,-74.0,88.0
9.9235,73.0,88.0
9.9285,122.0,90.0
9.9341,2.0,88.0
9.9385,-144.0,90.0
9.9435,-43.0,90.0
9.9486,141.0,92.0
9.9536,38.0,92.0
9.9586,-121.0,94.0
9.9636,-15.0,94.0
9.9687,74.0,94.0
9.9735,-16.0,94.0
9.9785,0.0,94.0
9.9835,75.0,94.0
9.9885,-71.0,94.0
9.9936,-149.0,96.0
9.9986,91.0,96.0
10.0035,194.0,98.0
10.0085,-53.0,98.0
10.0136,-183.0,98.0
10.0186,-11.0,98.0
10.0236,132.0,98.0
10.0288,58.0,98.0
10.0337,-63.0,100.0
10.0386,-53.0,100.0
10.0436,4.0,100.0
10.0485,-3.0,98.0
10.0536,33.0,98.0
10.0585,77.0,100.0
10.0636,-58.0,100.0
10.0686,-126.0,102.0
10.0737,87.0,104.0
10.0786,129.0,106.0
10.0837,-128.0,106.0
10.0886,-112.0,108.0
10.0935,151.0,110.0
10.0985,107.0,110.0
10.1036,-109.0,112.0
10.1086,-99.0,112.0
10.1136,12.0,112.0
10.1185,61.0,112.0
10.1235,61.0,112.0
10.1285,0.0,112.0
10.1336,-48.0,112.0
10.1387,-32.0,112.0
10.1438,-18.0,112.0
10.1493,6.0,112.0
10.1536,54.0,112.0
10.1585,39.0,112.0
10.1635,-42.0,112.0
10.1689,-53.0,114.0
10.1735,28.0,114.0
10.1786,38.0,114.0
10.1836,-35.0,114.0
10.1886,-19.0,114.0
10.1937,37.0,114.0
10.1988,-6.0,114.0
10.2035,-4.0,114.0
10.2086,66.0,114.0
10.2135,-44.0,114.0
10.2186,-154.0,116.0
10.2235,50.0,116.0
10.2285,202.0,120.0
10.2336,-8.0,120.0
10.2385,-166.0,122.0
10.2435,-27.0,122.0
10.2485,82.0,122.0
10.2536,18.0,122.0
10.2586,-20.0,122.0
10.2635,10.0,122.0
10.2685,5.0,122.0
10.2735,-17.0,122.0
10.2786,2.0,122.0
10.2836,11.0,122.0
10.2885,-34.0,122.0
10.2935,-32.0,122.0
10.2984,50.0,122.0
10.3034,72.0,124.0
10.3084,-25.0,124.0
10.3136,-91.0,126.0
10.3184,-5.0,124.0
10.3234,91.0,126.0
10.3285,2.0,124.0
10.3335,-94.0,124.0
10.3384,31.0,124.0
10.3435,103.0,124.0
10.3485,-62.0,126.0
10.3535,-104.0,126.0
10.3585,72.0,128.0
10.3635,83.0,128.0
10.369,-63.0,128.0
10.3735,-45.0,128.0
10.379,49.0,130.0
10.3834,2.0,128.0
10.3885,-42.0,128.0
10.3934,31.0,130.0
10.3986,45.0,130.0
10.4035,-41.0,130.0
10.4086,-37.0,130.0
10.4135,38.0,130.0
10.4184,-5.0,128.0
10.4235,-55.0,126.0
10.4284,72.0,126.0
10.4335,117.0,126.0
10.4385,-110.0,124.0
10.4434,-187.0,128.0
10.4489,70.0,126.0
10.4535,190.0,130.0
10.4586,6.0,130.0
10.4635,-109.0,130.0
10.4684,-34.0,128.0
10.4734,20.0,130.0
10.4784,-3.0,126.0
10.4835,14.0,126.0
10.4885,52.0,124.0
10.4934,-7.0,122.0
10.4985,-80.0,122.0
10.5035,2.0,120.0
10.5085,96.0,120.0
10.5138,-11.0,118.0
10.5185,-114.0,120.0
10.5234,10.0,120.0
10.5285,115.0,122.0
10.5338,13.0,120.0
10.5385,-83.0,122.0
10.5434,-29.0,120.0
10.5485,33.0,120.0
10.5534,10.0,120.0
10.5584,0.0,118.0
10.5635,31.0,118.0
10.5685,-11.0,116.0
10.5735,-65.0,116.0
10.5784,18.0,114.0
10.5835,87.0,116.0
10.5884,-28.0,114.0
10.5935,-105.0,114.0
10.5985,28.0,114.0
10.6036,109.0,114.0
10.6085,-13.0,114.0
10.6135,-81.0,114.0
10.6185,0.0,114.0
10.6234,32.0,114.0
10.6287,-2.0,112.0
10.6335,17.0,110.0
10.6384,23.0,110.0
10.6435,-56.0,108.0
10.6487,-53.0,108.0
10.6535,78.0,106.0
10.6584,81.0,108.0
10.6635,-85.0,106.0
10.6685,-100.0,106.0
10.6735,77.0,108.0
10.6785,96.0,108.0
10.6837,-59.0,108.0
10.6886,-71.0,110.0
10.6935,45.0,110.0
10.6985,39.0,110.0
10.7034,-43.0,110.0
10.7087,-15.0,108.0
10.7135,53.0,106.0
10.7184,-4.0,104.0
10.7234,-78.0,104.0
10.7284,28.0,102.0
10.7335,115.0,102.0
10.7385,-52.0,102.0
10.7436,-148.0,102.0
10.7485,49.0,102.0
10.7535,145.0,104.0
10.7585,-24.0,102.0
10.7635,-93.0,104.0
10.7685,3.0,104.0
10.7734,27.0,102.0
10.7786,4.0,102.0
10.7835,15.0,102.0
10.7885,-10.0,102.0
10.7936,-38.0,102.0
10.7986,7.0,102.0
10.8036,63.0,102.0
10.8085,29.0,102.0
10.8134,-75.0,102.0
10.8185,-97.0,104.0
10.8235,36.0,104.0
10.8284,139.0,106.0
10.8335,42.0,106.0
10.8386,-113.0,108.0
10.8435,-94.0,108.0
10.8484,46.0,108.0
10.8535,75.0,108.0
10.8585,6.0,106.0
10.8634,0.0,106.0
10.8686,-13.0,102.0
10.8735,-82.0,104.0
10.8786,-12.0,102.0
10.8835,121.0,102.0
10.8885,35.0,102.0
10.8937,-110.0,104.0
10.8985,-34.0,104.0
10.9034,80.0,104.0
10.9085,13.0,104.0
10.9138,-64.0,106.0
10.9185,0.0,106.0
10.9235,59.0,106.0
10.9285,6.0,106.0
10.9336,-33.0,106.0
10.9385,-3.0,106.0
10.9436,-19.0,104.0
10.9487,-35.0,104.0
10.9535,66.0,104.0
10.9585,89.0,106.0
10.9634,-79.0,106.0
10.9685,-123.0,108.0
10.9736,53.0,106.0
10.9785,123.0,108.0
10.9836,-10.0,106.0
10.9885,-100.0,108.0
10.9935,-24.0,106.0
10.9985,71.0,106.0
11.0036,37.0,106.0
11.0085,-42.0,104.0
11.0135,-26.0,104.0
11.0186,14.0,104.0
11.0237,-9.0,104.0
11.0287,-1.0,104.0
11.0336,57.0,104.0
11.0385,4.0,104.0
11.0435,-93.0,104.0
11.0484,-9.0,104.0
11.0534,100.0,104.0
11.0585,14.0,104.0
11.0637,-67.0,104.0
11.0685,-31.0,104.0
11.0735,-5.0,102.0
11.0785,48.0,102.0
11.0835,93.0,100.0
11.0885,-35.0,100.0
11.0935,-145.0,98.0
11.0985,-16.0,98.0
11.1036,133.0,100.0
11.1087,67.0,100.0
11.1137,-75.0,100.0
11.1185,-81.0,102.0
11.1236,22.0,102.0
11.1286,74.0,102.0
11.1337,-2.0,102.0
11.1387,-91.0,102.0
11.1442,-6.0,102.0
11.149,121.0,102.0
11.1536,29.0,104.0
11.1586,-112.0,104.0
11.1635,-42.0,104.0
11.1688,63.0,102.0
11.1734,13.0,102.0
11.1785,-30.0,102.0
11.1834,27.0,102.0
11.1886,33.0,102.0
11.1935,-39.0,102.0
11.1988,-34.0,102.0
11.2039,30.0,102.0
11.2084,10.0,102.0
11.2136,-33.0,102.0
11.2186,13.0,102.0
11.2236,53.0,102.0
11.2293,-9.0,102.0
11.234,-74.0,102.0
11.2384,-23.0,100.0
11.2435,93.0,100.0
11.2487,70.0,102.0
11.2541,-109.0,102.0
11.259,-112.0,104.0
11.2639,106.0,104.0
11.2685,128.0,106.0
11.2736,-73.0,108.0
11.2787,-101.0,110.0
11.284,30.0,108.0
11.2886,42.0,108.0
11.2939,-9.0,108.0
11.2989,9.0,106.0
11.3036,7.0,106.0
11.3088,-24.0,104.0
11.314,1.0,102.0
11.3187,7.0,102.0
11.3242,-25.0,100.0
11.3286,23.0,100.0
11.3336,44.0,100.0
11.3387,-57.0,100.0
11.3435,-52.0,100.0
11.349,87.0,102.0
11.3538,70.0,102.0
11.3589,-78.0,102.0
11.3637,-83.0,102.0
11.3687,21.0,102.0
11.3743,51.0,102.0
11.3797,26.0,102.0
11.3842,9.0,100.0
11.3894,-9.0,98.0
11.3947,-28.0,96.0
11.3984,-36.0,98.0
11.4039,-10.0,96.0
11.4084,45.0,96.0
11.4136,44.0,96.0
11.4186,-16.0,96.0
11.4236,-30.0,98.0
11.4291,0.0,96.0
11.4338,-18.0,96.0
11.4384,-24.0,96.0
11.4435,65.0,96.0
11.4484,67.0,98.0
11.4535,-86.0,98.0
11.459,-75.0,98.0
11.4639,96.0,98.0
11.4686,24.0,96.0
11.4734,-126.0,98.0
11.4784,39.0,96.0
11.4836,167.0,98.0
11.4887,-58.0,98.0
11.4936,-179.0,100.0
11.499,25.0,100.0
11.5036,134.0,102.0
11.5084,11.0,102.0
11.5143,-48.0,102.0
11.5184,-5.0,102.0
11.5235,-20.0,100.0
11.5286,-31.0,100.0
11.5335,31.0,98.0
11.5385,51.0,98.0
11.5435,0.0,98.0
11.5485,-39.0,98.0
11.5536,-30.0,98.0
11.5585,15.0,98.0
11.5634,47.0,98.0
11.5685,5.0,98.0
11.5743,-57.0,98.0
11.5785,-23.0,98.0
11.5835,59.0,98.0
11.5884,31.0,98.0
11.5934,-40.0,98.0
11.5985,-21.0,98.0
11.6035,4.0,96.0
11.6085,0.0,94.0
11.6135,24.0,94.0
11.6185,19.0,92.0
11.6235,-31.0,92.0
11.6288,-29.0,92.0
11.6335,14.0,92.0
11.6386,27.0,90.0
11.6435,10.0,90.0
11.6485,-11.0,90.0
11.6535,-24.0,90.0
11.6585,-2.0,90.0
11.6635,25.0,90.0
11.6685,-1.0,90.0
11.6735,-28.0,90.0
11.6788,14.0,90.0
11.6836,39.0,88.0
11.6885,-21.0,88.0
11.6937,-47.0,88.0
11.6985,21.0,88.0
11.7035,43.0,88.0
11.7086,-22.0,88.0
11.7137,-35.0,88.0
11.7184,17.0,88.0
11.7234,37.0,86.0
11.7284,5.0,86.0
11.7335,-50.0,84.0
11.7386,-41.0,84.0
11.7437,58.0,84.0
11.7484,74.0,84.0
11.7535,-41.0,84.0
11.7585,-79.0,84.0
11.7634,10.0,84.0
11.7685,48.0,82.0
11.7734,2.0,82.0
11.7784,-7.0,82.0
11.7838,13.0,82.0
11.7885,-4.0,80.0
11.7937,-31.0,80.0
11.7987,-13.0,78.0
11.8038,25.0,78.0
11.8088,27.0,78.0
11.814,-3.0,78.0
11.8185,-8.0,76.0
11.8236,-1.0,76.0
11.8291,-26.0,76.0
11.8337,-23.0,76.0
11.8387,41.0,76.0
11.8437,59.0,76.0
11.8498,-25.0,76.0
11.8539,-80.0,78.0
11.8589,5.0,78.0
11.8639,87.0,78.0
11.8692,-7.0,78.0
11.8748,-101.0,78.0
11.8786,14.0,78.0
11.8842,121.0,78.0
11.8886,0.0,78.0
11.8936,-109.0,78.0
11.8984,-28.0,76.0
11.9034,52.0,76.0
11.9088,36.0,74.0
11.914,17.0,74.0
11.919,-19.0,72.0
11.9239,-58.0,72.0
11.9289,3.0,72.0
11.9336,63.0,72.0
11.9386,2.0,72.0
11.9435,-42.0,72.0
11.9483,-5.0,72.0
11.9534,6.0,72.0
11.9584,6.0,72.0
11.9633,32.0,72.0
11.9689,1.0,72.0
11.9741,-55.0,72.0
11.9802,-19.0,72.0
11.9841,53.0,72.0
11.9886,36.0,72.0
11.9937,-25.0,70.0
11.9992,-38.0,70.0
12.0041,-18.0,68.0
12.0086,14.0,68.0
12.0141,56.0,68.0
12.0187,16.0,68.0
12.0236,-71.0,70.0
12.0293,-29.0,70.0
12.034,67.0,70.0
12.0391,20.0,70.0
12.0436,-52.0,70.0
12.0484,-6.0,70.0
12.0538,29.0,70.0
12.0595,11.0,70.0
12.0638,4.0,70.0
12.0686,-31.0,70.0
12.0735,-52.0,70.0
12.0786,29.0,70.0
12.0845,85.0,72.0
12.089,2.0,70.0
12.0941,-72.0,70.0
12.0986,-33.0,70.0
12.1035,33.0,68.0
12.1086,38.0,68.0
12.1138,-13.0,66.0
12.1185,-27.0,66.0
12.1234,16.0,64.0
12.1284,6.0,64.0
12.1335,-9.0,60.0
12.1384,26.0,60.0
12.1435,-19.0,58.0
12.1486,-70.0,60.0
12.1545,45.0,60.0
12.1585,100.0,62.0
12.1635,-56.0,62.0
12.1686,-107.0,62.0
12.1734,64.0,64.0
12.1786,103.0,64.0
12.1835,-66.0,66.0
12.1888,-86.0,66.0
12.1936,57.0,66.0
12.1985,37.0,66.0
12.2035,-63.0,68.0
12.2085,21.0,68.0
12.2135,101.0,68.0
12.2185,-31.0,68.0
12.2237,-139.0,70.0
12.2284,-17.0,70.0
12.2336,121.0,70.0
12.2385,62.0,72.0
12.2435,-54.0,72.0
12.2484,-48.0,72.0
12.2534,1.0,72.0
12.2584,1.0,72.0
12.2634,8.0,72.0
12.2684,13.0,72.0
12.2734,-2.0,72.0
12.2786,24.0,72.0
12.2835,8.0,72.0
12.2884,-78.0,72.0
12.2935,-22.0,72.0
12.2984,102.0,74.0
12.3035,16.0,74.0
12.3087,-77.0,74.0
12.3135,22.0,74.0
12.3186,31.0,74.0
12.3234,-72.0,76.0
12.3284,-3.0,76.0
12.3335,91.0,76.0
12.3385,-3.0,76.0
12.3435,-69.0,76.0
12.3486,10.0,76.0
12.3535,38.0,76.0
12.3585,-14.0,76.0
12.3634,-22.0,76.0
12.3683,-1.0,76.0
12.3735,8.0,74.0
12.3785,24.0,74.0
12.3836,25.0,74.0
12.3891,-19.0,74.0
12.3934,-69.0,74.0
12.3984,-26.0,72.0
12.4034,84.0,74.0
12.4084,79.0,74.0
12.4144,-52.0,76.0
12.4189,-79.0,76.0
12.4241,-8.0,76.0
12.4284,-4.0,76.0
12.4336,60.0,76.0
12.4386,136.0,78.0
12.4435,-64.0,80.0
12.4484,-224.0,82.0
12.4535,16.0,82.0
12.4586,193.0,86.0
12.4634,27.0,86.0
12.4685,-78.0,86.0
12.4734,-9.0,86.0
12.4784,-10.0,86.0
12.4835,-49.0,86.0
12.4885,17.0,86.0
12.4935,69.0,86.0
12.4985,13.0,86.0
12.5035,-24.0,84.0
12.509,-29.0,84.0
12.5149,-43.0,84.0
12.5185,10.0,84.0
12.5236,83.0,84.0
12.5285,44.0,84.0
12.5335,-54.0,84.0
12.5397,-102.0,84.0
12.5436,-36.0,84.0
12.5485,95.0,84.0
12.5535,96.0,86.0
12.5586,-24.0,86.0
12.5635,-46.0,86.0
12.5686,-15.0,86.0
12.5737,-60.0,86.0
12.5786,-17.0,86.0
12.5835,108.0,88.0
12.5885,61.0,88.0
12.5946,-76.0,90.0
12.5986,-56.0,90.0
12.6035,23.0,90.0
12.6085,22.0,90.0
12.6134,5.0,90.0
12.6185,2.0,90.0
12.6236,-11.0,88.0
12.6289,-6.0,88.0
12.6335,11.0,88.0
12.6385,-3.0,88.0
12.6435,-23.0,88.0
12.6485,13.0,88.0
12.6536,49.0,88.0
12.6585,-4.0,88.0
12.6636,-63.0,88.0
12.6686,-17.0,86.0
12.6735,41.0,86.0
12.6785,26.0,86.0
12.6835,0.0,86.0
12.6885,-9.0,86.0
12.6937,-11.0,86.0
12.6986,-6.0,86.0
12.7035,-17.0,86.0
12.7085,-16.0,86.0
12.7136,42.0,86.0
12.7185,72.0,86.0
12.7235,-28.0,86.0
12.7286,-109.0,86.0
12.7334,1.0,86.0
12.7385,96.0,86.0
12.7441,2.0,86.0
12.7488,-54.0,86.0
12.7535,9.0,86.0
12.7584,4.0,86.0
12.7634,-16.0,86.0
12.7684,42.0,86.0
12.7736,29.0,86.0
12.7787,-68.0,88.0
12.7835,-48.0,88.0
12.7884,66.0,88.0
12.7934,54.0,88.0
12.7985,-54.0,88.0
12.8034,-44.0,88.0
12.8084,40.0,86.0
12.8135,30.0,86.0
12.8185,-16.0,84.0
12.8237,-8.0,84.0
12.8285,-16.0,82.0
12.8336,-19.0,82.0
12.8386,33.0,82.0
12.8434,32.0,82.0
12.8485,-27.0,82.0
12.8537,-22.0,80.0
12.8584,17.0,80.0
12.8635,13.0,78.0
12.8684,-7.0,78.0
12.8736,-19.0,76.0
12.8784,-13.0,76.0
12.8835,22.0,74.0
12.8884,38.0,74.0
12.8934,-10.0,74.0
12.8984,-40.0,76.0
12.9034,5.0,76.0
12.9084,13.0,76.0
12.9135,-33.0,76.0
12.9186,10.0,76.0
12.9234,73.0,76.0
12.9285,-7.0,76.0
12.9335,-83.0,76.0
12.9384,-6.0,74.0
12.9436,58.0,76.0
12.9484,9.0,74.0
12.9535,-31.0,74.0
12.9584,-4.0,74.0
12.9635,23.0,74.0
12.9684,7.0,74.0
12.9735,-31.0,72.0
12.9784,-23.0,72.0
12.9834,39.0,72.0
12.9884,36.0,72.0
12.9935,-44.0,72.0
12.9987,-29.0,74.0
13.0036,47.0,74.0
13.0084,1.0,74.0
13.0135,-34.0,74.0
13.0184,40.0,74.0
13.0234,-1.0,74.0
13.0284,-89.0,74.0
13.0334,31.0,74.0
13.0386,116.0,76.0
13.0434,-33.0,74.0
13.0485,-94.0,76.0
13.0534,28.0,74.0
13.0585,43.0,74.0
13.0634,-40.0,74.0
13.0686,-17.0,74.0
13.0735,44.0,74.0
13.0785,51.0,74.0
13.0835,1.0,72.0
13.0885,-113.0,70.0
13.0935,-84.0,72.0
13.0993,127.0,70.0
13.1035,127.0,72.0
13.1087,-87.0,72.0
13.1137,-88.0,74.0
13.1184,52.0,74.0
13.1234,15.0,74.0
13.1284,-48.0,74.0
13.1334,25.0,74.0
13.1384,46.0,74.0
13.1434,-17.0,74.0
13.1484,-10.0,74.0
13.1534,-9.0,74.0
13.1584,-50.0,74.0
13.1634,16.0,72.0
13.1684,98.0,74.0
13.1735,3.0,72.0
13.1787,-103.0,72.0
13.1842,-31.0,72.0
13.1884,69.0,72.0
13.1935,44.0,72.0
13.1985,-26.0,72.0
13.2034,-39.0,72.0
13.2084,1.0,72.0
13.2134,28.0,70.0
13.2184,-1.0,70.0
13.2234,-29.0,70.0
13.2287,19.0,68.0
13.2335,49.0,68.0
13.2385,-33.0,68.0
13.2434,-67.0,68.0
13.2484,21.0,68.0
13.2534,50.0,70.0
13.2584,4.0,70.0
13.2635,0.0,68.0
13.2684,-7.0,68.0
13.2735,-34.0,70.0
13.2784,-19.0,70.0
13.2834,9.0,70.0
13.2884,37.0,70.0
13.2934,48.0,70.0
13.2984,-22.0,70.0
13.3034,-77.0,70.0
13.3085,-3.0,70.0
13.3135,61.0,70.0
13.3186,12.0,70.0
13.324,-27.0,70.0
13.3284,-4.0,70.0
13.334,7.0,70.0
13.3384,4.0,70.0
13.3434,0.0,70.0
13.3485,-20.0,70.0
13.3535,-14.0,70.0
13.3584,33.0,70.0
13.3634,32.0,70.0
13.3684,-16.0,68.0
13.3735,-30.0,68.0
13.3786,-18.0,66.0
13.3835,-8.0,68.0
13.3885,38.0,66.0
13.3934,70.0,68.0
13.3985,-17.0,68.0
13.4035,-111.0,70.0
13.4085,-27.0,70.0
13.4134,97.0,70.0
13.4189,49.0,70.0
13.4235,-52.0,70.0
13.4287,-33.0,70.0
13.4335,30.0,70.0
13.4384,11.0,68.0
13.4435,-43.0,68.0
13.4484,-11.0,68.0
13.4534,48.0,68.0
13.4586,21.0,68.0
13.4634,-19.0,68.0
13.4685,-1.0,68.0
13.4735,-15.0,68.0
13.4785,-47.0,68.0
13.4835,0.0,68.0
13.4884,73.0,68.0
13.4935,51.0,70.0
13.4985,-46.0,70.0
13.5034,-71.0,70.0
13.5084,5.0,70.0
13.5135,35.0,70.0
13.5184,-1.0,70.0
13.5233,1.0,70.0
13.5285,20.0,70.0
13.5334,3.0,70.0
13.5384,-20.0,70.0
13.5434,-26.0,70.0
13.5484,-3.0,70.0
13.5534,20.0,70.0
13.5584,9.0,70.0
13.5634,24.0,68.0
13.5684,34.0,70.0
13.5735,-69.0,68.0
13.5785,-108.0,70.0
13.5834,57.0,70.0
13.5885,145.0,72.0
13.5934,-8.0,72.0
13.5985,-106.0,74.0
13.6034,1.0,74.0
13.6084,40.0,74.0
13.6135,-47.0,74.0
13.6184,-15.0,74.0
13.6234,82.0,74.0
13.6285,30.0,74.0
13.6337,-67.0,76.0
13.6385,-47.0,76.0
13.6435,27.0,76.0
13.6484,51.0,76.0
13.6534,7.0,76.0
13.6584,-50.0,76.0
13.6634,-35.0,76.0
13.6684,38.0,76.0
13.6735,57.0,76.0
13.6785,-9.0,74.0
13.6834,-65.0,74.0
13.6884,-21.0,74.0
13.6934,57.0,74.0
13.6984,37.0,74.0
13.7034,-32.0,74.0
13.7084,-36.0,74.0
13.7138,-14.0,74.0
13.7184,15.0,72.0
13.7235,55.0,74.0
13.7284,20.0,72.0
13.7335,-55.0,72.0
13.7385,-54.0,70.0
13.7434,19.0,68.0
13.7484,70.0,68.0
13.7535,21.0,68.0
13.7584,-73.0,68.0
13.7635,-46.0,68.0
13.7684,73.0,68.0
13.7736,56.0,70.0
13.7785,-71.0,70.0
13.7834,-57.0,70.0
13.7884,54.0,72.0
13.7934,44.0,72.0
13.7988,-31.0,72.0
13.8034,-10.0,72.0
13.8085,25.0,70.0
13.8135,-21.0,70.0
13.8185,-32.0,70.0
13.8235,24.0,70.0
13.8284,26.0,68.0
13.8337,-9.0,68.0
13.8384,-8.0,68.0
13.8434,0.0,68.0
13.8485,-6.0,68.0
13.8535,-3.0,66.0
13.8584,15.0,66.0
13.8634,13.0,66.0
13.8686,-23.0,66.0
13.8734,-22.0,66.0
13.8785,30.0,66.0
13.8834,29.0,66.0
13.8884,-33.0,66.0
13.8935,-37.0,66.0
13.8986,26.0,66.0
13.9034,38.0,66.0
13.9084,-9.0,66.0
13.9135,-13.0,66.0
13.9184,9.0,66.0
13.9235,-23.0,66.0
13.9284,-37.0,66.0
13.9335,32.0,66.0
13.9384,59.0,66.0
13.9434,-13.0,66.0
13.9485,-44.0,66.0
13.9534,-2.0,66.0
13.9584,8.0,66.0
13.9633,6.0,66.0
13.9684,17.0,66.0
13.9734,-1.0,66.0
13.9784,-26.0,66.0
13.9834,-15.0,66.0
13.9884,17.0,66.0
13.9935,40.0,66.0
13.9984,9.0,66.0
14.0036,-50.0,66.0
14.0085,-40.0,66.0
14.0135,26.0,66.0
14.0184,54.0,66.0
14.0235,21.0,68.0
14.0285,-35.0,68.0
14.0337,-40.0,66.0
14.0384,2.0,66.0
14.0434,0.0,64.0
14.0484,-4.0,64.0
14.0533,54.0,64.0
14.0584,38.0,64.0
14.0634,-62.0,64.0
14.0685,-43.0,64.0
14.0734,38.0,64.0
14.0784,3.0,64.0
14.0836,-39.0,64.0
14.0886,25.0,64.0
14.0936,64.0,64.0
14.0985,-8.0,64.0
14.1034,-72.0,64.0
14.1086,-25.0,66.0
14.1139,57.0,66.0
14.1184,37.0,66.0
14.1234,-39.0,66.0
14.1284,-25.0,66.0
14.1338,28.0,66.0
14.1384,6.0,64.0
14.1434,-20.0,64.0
14.1485,11.0,64.0
14.1554,9.0,64.0
14.1583,-29.0,64.0
14.1634,-8.0,64.0
14.1684,38.0,64.0
14.1734,21.0,64.0
14.1786,-12.0,64.0
14.1834,-16.0,64.0
14.1883,-29.0,64.0
14.1935,-26.0,64.0
14.1985,34.0,66.0
14.2035,68.0,66.0
14.2083,4.0,66.0
14.2134,-56.0,66.0
14.2184,-29.0,64.0
14.2235,0.0,62.0
14.229,-4.0,60.0
14.2346,31.0,62.0
14.2383,60.0,60.0
14.2433,-1.0,60.0
14.2484,-67.0,60.0
14.2534,-37.0,60.0
14.2583,24.0,60.0
14.2636,28.0,60.0
14.2683,3.0,60.0
14.2733,6.0,58.0
14.2784,2.0,58.0
14.2836,-28.0,58.0
14.2884,-10.0,58.0
14.2934,47.0,58.0
14.2984,13.0,58.0
14.3033,-89.0,58.0
14.3085,-42.0,58.0
14.3135,121.0,60.0
14.3184,88.0,60.0
14.3236,-93.0,60.0
14.3284,-95.0,62.0
14.3333,19.0,62.0
14.3384,37.0,62.0
14.3433,32.0,62.0
14.3485,41.0,62.0
14.3534,-24.0,62.0
14.3587,-84.0,62.0
14.3637,-18.0,62.0
14.3684,75.0,64.0
14.3735,47.0,62.0
14.3784,-43.0,62.0
14.3834,-45.0,64.0
14.3883,17.0,62.0
14.3933,23.0,62.0
14.3984,-9.0,62.0
14.4034,9.0,60.0
14.4085,24.0,60.0
14.4134,-31.0,60.0
14.4184,-53.0,60.0
14.4234,21.0,58.0
14.4284,64.0,58.0
14.4333,0.0,58.0
14.4391,-44.0,58.0
14.4433,0.0,58.0
14.4483,15.0,58.0
14.4534,-22.0,58.0
14.4583,0.0,58.0
14.4633,36.0,58.0
14.4684,1.0,58.0
14.4734,-25.0,58.0
14.4784,-2.0,58.0
14.4833,0.0,58.0
14.4884,-5.0,58.0
14.4934,9.0,58.0
14.4984,16.0,58.0
14.5033,9.0,58.0
14.5084,-12.0,58.0
14.5135,-19.0,58.0
14.5185,3.0,56.0
14.5235,-5.0,56.0
14.5284,-20.0,56.0
14.5333,32.0,56.0
14.5384,61.0,56.0
14.5434,-23.0,56.0
14.5484,-84.0,58.0
14.5534,-14.0,58.0
14.5584,59.0,58.0
14.5634,37.0,58.0
14.5684,-3.0,58.0
14.5734,-20.0,58.0
14.5784,-32.0,58.0
14.5834,-17.0,58.0
14.5884,27.0,58.0
14.5934,43.0,58.0
14.5984,0.0,58.0
14.6033,-50.0,58.0
14.6084,-34.0,58.0
14.6134,37.0,60.0
14.6184,67.0,60.0
14.6234,7.0,60.0
14.6289,-81.0,62.0
14.6334,-76.0,62.0
14.6385,60.0,62.0
14.6434,118.0,64.0
14.6484,-19.0,64.0
14.6535,-111.0,64.0
14.6586,-10.0,64.0
14.6633,81.0,64.0
14.6684,30.0,64.0
14.6734,-40.0,64.0
14.6785,-46.0,66.0
14.6837,-15.0,66.0
14.6885,38.0,66.0
14.6934,55.0,66.0
14.6985,-1.0,66.0
14.7034,-44.0,66.0
14.7087,-21.0,64.0
14.7135,6.0,64.0
14.7184,13.0,64.0
14.7234,6.0,64.0
14.7285,-9.0,64.0
14.7334,4.0,62.0
14.7384,33.0,64.0
14.745,0.0,62.0
14.7484,-56.0,62.0
14.7534,-29.0,62.0
14.7584,45.0,62.0
14.7634,58.0,62.0
14.7685,-11.0,62.0
14.7734,-71.0,64.0
14.7785,-22.0,64.0
14.7835,72.0,64.0
14.7884,51.0,64.0
14.7934,-52.0,66.0
14.7987,-69.0,66.0
14.8035,7.0,66.0
14.8086,58.0,66.0
14.8134,38.0,66.0
14.8184,-17.0,66.0
14.8233,-52.0,68.0
14.8288,-21.0,68.0
14.8336,32.0,68.0
14.8384,29.0,68.0
14.8434,-5.0,66.0
14.8484,-11.0,66.0
14.8534,-7.0,66.0
14.8584,-5.0,66.0
14.8634,5.0,66.0
14.8684,14.0,66.0
14.8734,0.0,64.0
14.8784,-19.0,64.0
14.8835,-7.0,64.0
14.8884,19.0,64.0
14.8934,7.0,64.0
14.8985,-12.0,62.0
14.9035,10.0,62.0
14.9086,7.0,62.0
14.9142,-43.0,64.0
14.9185,-19.0,64.0
14.9234,62.0,64.0
14.9284,44.0,64.0
14.9335,-42.0,64.0
14.9386,-59.0,66.0
14.9434,5.0,64.0
14.9495,60.0,64.0
14.9535,6.0,62.0
14.9585,-68.0,62.0
14.9635,8.0,60.0
14.9684,109.0,60.0
14.9734,-5.0,60.0
14.9785,-166.0,62.0
14.9834,-39.0,62.0
14.9884,187.0,66.0
14.9934,82.0,66.0
14.9986,-154.0,68.0
15.0034,-78.0,68.0
15.0084,103.0,68.0
15.0135,48.0,68.0
15.0184,-59.0,68.0
15.0235,-27.0,68.0
15.0284,19.0,68.0
15.0334,12.0,68.0
15.0385,6.0,68.0
15.0434,0.0,68.0
15.0483,-4.0,68.0
15.0537,8.0,68.0
15.0585,-13.0,66.0
15.0634,-36.0,68.0
15.0684,28.0,66.0
15.0734,49.0,68.0
15.0784,-40.0,68.0
15.0835,-26.0,68.0
15.0886,57.0,68.0
15.0934,-6.0,68.0
15.0985,-66.0,70.0
15.1033,9.0,68.0
15.1084,41.0,70.0
15.1135,18.0,70.0
15.1186,17.0,70.0
15.1234,-33.0,70.0
15.1285,-67.0,70.0
15.1334,18.0,72.0
15.1384,68.0,72.0
15.1434,0.0,72.0
15.1484,-26.0,72.0
15.1538,11.0,72.0
15.1584,-16.0,72.0
15.1634,-51.0,72.0
15.1685,30.0,72.0
15.1734,86.0,74.0
15.1784,-27.0,74.0
15.1834,-91.0,74.0
15.1884,27.0,74.0
15.1934,75.0,74.0
15.1985,-23.0,74.0
15.2035,-58.0,74.0
15.2084,-6.0,74.0
15.2135,36.0,74.0
15.2184,54.0,74.0
15.2234,3.0,74.0
15.2284,-73.0,76.0
15.2335,-37.0,76.0
15.2384,43.0,76.0
15.2434,28.0,76.0
15.2483,2.0,74.0
15.2533,6.0,74.0
15.2583,-37.0,74.0
15.2634,-24.0,74.0
15.2683,65.0,74.0
15.2734,32.0,74.0
15.2784,-83.0,74.0
15.2834,-49.0,72.0
15.2885,65.0,74.0
15.2936,54.0,72.0
15.2984,-15.0,72.0
15.3034,-24.0,72.0
15.3084,-23.0,72.0
15.3134,-24.0,72.0
15.3183,21.0,70.0
15.3235,57.0,72.0
15.3285,12.0,72.0
15.3334,-59.0,72.0
15.3384,-45.0,72.0
15.3435,30.0,72.0
15.3485,58.0,72.0
15.3535,21.0,72.0
15.3583,-41.0,72.0
15.3634,-73.0,74.0
15.3684,-7.0,74.0
15.3734,79.0,76.0
15.3784,63.0,76.0
15.3837,-25.0,76.0
15.3883,-70.0,76.0
15.3933,-28.0,76.0
15.3984,22.0,76.0
15.4044,21.0,76.0
15.4085,10.0,76.0
15.4134,23.0,74.0
15.4183,26.0,74.0
15.4234,-20.0,74.0
15.4287,-85.0,74.0
15.4336,-57.0,74.0
15.4385,66.0,74.0
15.4434,129.0,76.0
15.4483,42.0,76.0
15.4534,-107.0,78.0
15.4583,-135.0,78.0
15.4633,9.0,78.0
15.4684,118.0,80.0
15.4734,72.0,80.0
15.4784,-18.0,80.0
15.4834,-91.0,82.0
15.4885,-79.0,82.0
15.4935,62.0,84.0
15.4985,111.0,86.0
15.5035,-29.0,86.0
15.5084,-75.0,86.0
15.5136,15.0,86.0
15.5183,28.0,86.0
15.5233,-9.0,86.0
15.5283,-18.0,86.0
15.5334,-8.0,86.0
15.5386,37.0,88.0
15.5433,50.0,88.0
15.5485,-48.0,88.0
15.5533,-100.0,90.0
15.5584,29.0,90.0
15.564,120.0,90.0
15.5683,2.0,90.0
15.5734,-88.0,90.0
15.5784,-9.0,90.0
15.5834,27.0,90.0
15.5885,-24.0,90.0
15.5933,30.0,90.0
15.5985,72.0,90.0
15.6035,-82.0,92.0
15.6084,-111.0,92.0
15.6133,123.0,92.0
15.619,132.0,92.0
15.6235,-126.0,94.0
15.6283,-120.0,92.0
15.6333,87.0,92.0
15.6384,62.0,92.0
15.6434,-55.0,92.0
15.6484,18.0,90.0
15.6533,73.0,90.0
15.6585,-69.0,90.0
15.6635,-116.0,92.0
15.6684,59.0,92.0
15.6735,129.0,94.0
15.6784,-15.0,94.0
15.6834,-92.0,96.0
15.6884,-22.0,96.0
15.6935,34.0,96.0
15.6984,36.0,96.0
15.7034,2.0,96.0
15.7083,-31.0,96.0
15.7133,18.0,96.0
15.7183,23.0,96.0
15.7233,-94.0,96.0
15.7285,-29.0,96.0
15.7333,155.0,98.0
15.7384,45.0,98.0
15.7436,-122.0,100.0
15.7484,-36.0,100.0
15.7534,13.0,100.0
15.7584,-20.0,100.0
15.7634,67.0,100.0
15.7683,95.0,100.0
15.7735,-64.0,102.0
15.7786,-126.0,102.0
15.7833,25.0,102.0
15.7883,105.0,104.0
15.7934,-11.0,104.0
15.7986,-87.0,106.0
15.8035,-12.0,104.0
15.8085,89.0,106.0
15.8134,87.0,106.0
15.8184,-61.0,106.0
15.8234,-155.0,106.0
15.8283,0.0,106.0
15.8333,146.0,108.0
15.8385,41.0,108.0
15.8434,-83.0,108.0
15.8491,-32.0,108.0
15.8533,35.0,108.0
15.8583,0.0,108.0
15.8633,-27.0,108.0
15.8684,13.0,108.0
15.8734,29.0,108.0
15.8784,13.0,106.0
15.8833,13.0,106.0
15.8884,-80.0,108.0
15.8936,-133.0,110.0
15.8984,118.0,110.0
15.9034,258.0,114.0
15.9083,-54.0,114.0
15.9137,-253.0,118.0
15.9185,-56.0,118.0
15.9236,115.0,118.0
15.9284,87.0,118.0
15.9337,0.0,118.0
15.9385,-39.0,118.0
15.9433,15.0,118.0
15.9485,34.0,118.0
15.9534,-108.0,120.0
15.9584,-125.0,122.0
15.9634,147.0,122.0
15.9684,217.0,126.0
15.9734,-84.0,126.0
15.9787,-201.0,128.0
15.9834,7.0,128.0
15.9883,96.0,130.0
15.9933,-1.0,128.0
15.9983,-26.0,128.0
16.0033,21.0,128.0
16.0085,49.0,128.0
16.0134,28.0,128.0
16.0183,-83.0,128.0
16.0235,-122.0,130.0
16.0285,54.0,130.0
16.0335,158.0,132.0
16.0383,8.0,130.0
16.0434,-105.0,132.0
16.0484,-47.0,132.0
16.0535,20.0,132.0
16.0584,46.0,134.0
16.0636,32.0,134.0
16.0685,-21.0,132.0
16.0733,-29.0,132.0
16.0784,3.0,130.0
16.0836,-9.0,128.0
16.0885,-22.0,128.0
16.0934,48.0,128.0
16.0984,75.0,126.0
16.1033,-63.0,128.0
16.1084,-124.0,128.0
16.1133,48.0,128.0
16.1185,115.0,128.0
16.1235,-25.0,128.0
16.1284,-45.0,128.0
16.1334,25.0,126.0
16.1384,-5.0,126.0
16.1436,-21.0,124.0
16.1485,-7.0,124.0
16.1565,-46.0,124.0
16.1584,20.0,124.0
16.1634,140.0,126.0
16.1684,24.0,126.0
16.1737,-145.0,128.0
16.1784,-88.0,130.0
16.1834,33.0,130.0
16.1883,87.0,130.0
16.1933,98.0,130.0
16.1987,13.0,130.0
16.2036,-121.0,130.0
16.2084,-141.0,132.0
16.2134,13.0,130.0
16.2184,167.0,132.0
16.2235,89.0,134.0
16.2284,-74.0,134.0
16.2334,-67.0,136.0
16.2383,-6.0,134.0
16.2434,-11.0,134.0
16.2484,2.0,132.0
16.2534,25.0,130.0
16.2592,17.0,128.0
16.2635,26.0,126.0
16.2688,25.0,124.0
16.2735,-51.0,124.0
16.2784,-103.0,126.0
16.2836,-3.0,124.0
16.2891,119.0,126.0
16.2937,78.0,126.0
16.2985,-46.0,126.0
16.3034,-84.0,126.0
16.3091,-28.0,124.0
16.3139,29.0,122.0
16.3184,43.0,124.0
16.3236,13.0,122.0
16.3285,-23.0,122.0
16.3335,-26.0,122.0
16.3385,2.0,122.0
16.3435,61.0,122.0
16.3484,44.0,122.0
16.3536,-141.0,124.0
16.3586,-136.0,126.0
16.3635,203.0,128.0
16.3685,209.0,130.0
16.3735,-191.0,132.0
16.3786,-188.0,134.0
16.3835,134.0,134.0
16.3896,104.0,134.0
16.3945,-78.0,136.0
16.3998,-35.0,136.0
16.4034,22.0,136.0
16.4084,6.0,134.0
16.4134,40.0,134.0
16.4185,-14.0,132.0
16.4235,-116.0,134.0
16.4285,43.0,132.0
16.4334,200.0,136.0
16.4385,-39.0,134.0
16.4436,-231.0,138.0
16.4484,-3.0,136.0
16.4535,166.0,138.0
16.4585,6.0,138.0
16.4635,-71.0,136.0
16.4685,79.0,136.0
16.4735,50.0,136.0
16.4785,-184.0,138.0
16.4834,-96.0,138.0
16.4884,210.0,140.0
16.4935,121.0,142.0
16.4985,-162.0,144.0
16.5034,-100.0,146.0
16.5087,92.0,146.0
16.5138,65.0,148.0
16.5184,-17.0,148.0
16.5238,-31.0,148.0
16.5297,-49.0,148.0
16.5335,9.0,146.0
16.5387,94.0,146.0
16.5436,-11.0,142.0
16.5483,-122.0,142.0
16.554,5.0,138.0
16.5586,117.0,140.0
16.5636,21.0,138.0
16.5687,-59.0,138.0
16.574,-22.0,138.0
16.579,-13.0,138.0
16.5835,-28.0,138.0
16.589,23.0,138.0
16.5935,86.0,138.0
16.5992,44.0,136.0
16.6041,-73.0,134.0
16.6085,-113.0,134.0
16.614,-2.0,132.0
16.6186,113.0,130.0
16.6237,54.0,132.0
16.6292,-61.0,130.0
16.634,-36.0,132.0
16.6393,15.0,130.0
16.6441,-17.0,130.0
16.6485,-2.0,130.0
16.6536,61.0,130.0
16.6594,9.0,130.0
16.664,-85.0,128.0
16.6693,-3.0,128.0
16.6735,109.0,128.0
16.6785,-16.0,128.0
16.684,-140.0,128.0
16.6887,23.0,128.0
16.6935,155.0,130.0
16.6985,-1.0,130.0
16.7036,-140.0,130.0
16.7084,-39.0,132.0
16.7141,90.0,132.0
16.719,67.0,132.0
16.7235,-15.0,134.0
16.7284,-63.0,134.0
16.7336,-42.0,134.0
16.7386,46.0,134.0
16.7442,44.0,132.0
16.749,-39.0,132.0
16.7539,2.0,130.0
16.759,40.0,130.0
16.7635,-62.0,130.0
16.7688,-44.0,130.0
16.774,117.0,132.0
16.7785,66.0,132.0
16.784,-147.0,134.0
16.7887,-115.0,136.0
16.7936,113.0,138.0
16.7985,152.0,140.0
16.8038,-21.0,138.0
16.8087,-120.0,138.0
16.814,-54.0,138.0
16.8186,29.0,136.0
16.8235,49.0,136.0
16.8291,53.0,136.0
16.834,21.0,136.0
16.839,-66.0,136.0
16.844,-92.0,136.0
16.8486,-11.0,134.0
16.8536,105.0,134.0
16.8596,133.0,134.0
16.864,-51.0,134.0
16.8687,-211.0,136.0
16.8735,-7.0,136.0
16.8785,202.0,138.0
16.8843,2.0,138.0
16.8886,-161.0,140.0
16.895,54.0,140.0
16.899,134.0,142.0
16.9033,-102.0,144.0
16.9084,-102.0,146.0
16.9142,120.0,146.0
16.919,64.0,146.0
16.9238,-122.0,148.0
16.929,-56.0,146.0
16.9336,101.0,146.0
16.9386,59.0,148.0
16.9433,-49.0,146.0
16.949,-11.0,146.0
16.954,11.0,146.0
16.959,-80.0,146.0
16.9635,-26.0,146.0
16.9688,154.0,148.0
16.9735,73.0,150.0
16.9785,-178.0,152.0
16.9841,-100.0,152.0
16.9888,149.0,154.0
16.9942,76.0,154.0
16.9995,-88.0,152.0
17.0037,-11.0,150.0
17.0084,38.0,148.0
17.0144,-41.0,144.0
17.0198,-18.0,142.0
17.0234,41.0,140.0
17.0291,18.0,140.0
17.0338,-3.0,138.0
17.0388,-28.0,138.0
17.0438,-36.0,138.0
17.0483,29.0,138.0
17.0535,54.0,138.0
17.0588,1.0,138.0
17.0635,-37.0,138.0
17.0691,-44.0,138.0
17.074,0.0,134.0
17.0787,50.0,134.0
17.0839,12.0,130.0
17.089,-1.0,130.0
17.0941,29.0,128.0
17.0985,-69.0,130.0
17.1033,-95.0,130.0
17.1083,106.0,130.0
17.1143,114.0,132.0
17.1193,-73.0,130.0
17.1238,-29.0,128.0
17.1285,2.0,126.0
17.1334,-125.0,126.0
17.1386,27.0,124.0
17.1436,222.0,126.0
17.149,-14.0,124.0
17.1537,-192.0,126.0
17.159,32.0,126.0
17.1634,108.0,128.0
17.1688,-80.0,128.0
17.174,-53.0,128.0
17.1785,76.0,128.0
17.1833,20.0,128.0
17.1883,-2.0,126.0
17.1936,35.0,128.0
17.199,-49.0,126.0
17.2044,-106.0,128.0
17.2084,10.0,126.0
17.214,133.0,128.0
17.2184,73.0,130.0
17.2237,-76.0,130.0
17.2286,-97.0,132.0
17.2335,-28.0,130.0
17.2384,26.0,130.0
17.2434,90.0,130.0
17.2487,75.0,130.0
17.2536,-58.0,130.0
17.2587,-124.0,130.0
17.2635,-15.0,130.0
17.2684,102.0,130.0
17.2735,50.0,132.0
17.2787,-34.0,132.0
17.2836,-18.0,132.0
17.2885,-56.0,132.0
17.2935,-58.0,132.0
17.2985,131.0,134.0
17.3038,130.0,134.0
17.3091,-134.0,136.0
17.3135,-128.0,138.0
17.3187,48.0,138.0
17.3234,24.0,136.0
17.329,74.0,136.0
17.3338,141.0,136.0
17.3384,-151.0,138.0
17.3434,-273.0,140.0
17.3487,151.0,142.0
17.3535,289.0,146.0
17.3584,-125.0,146.0
17.3635,-197.0,150.0
17.3689,133.0,150.0
17.3735,74.0,152.0
17.3785,-171.0,152.0
17.3835,19.0,152.0
17.3884,185.0,154.0
17.3934,-85.0,156.0
17.3984,-130.0,158.0
17.4034,166.0,160.0
17.4085,43.0,160.0
17.4134,-271.0,162.0
17.4186,-17.0,160.0
17.4244,327.0,164.0
17.4284,68.0,162.0
17.4336,-263.0,166.0
17.4386,-102.0,164.0
17.4433,102.0,166.0
17.4484,82.0,166.0
17.4533,63.0,166.0
17.4583,-68.0,166.0
17.4634,-182.0,168.0
17.4684,76.0,168.0
17.4734,241.0,172.0
17.4784,-54.0,172.0
17.4835,-220.0,174.0
17.4883,-6.0,174.0
17.4933,126.0,174.0
17.4984,53.0,172.0
17.5033,-33.0,172.0
17.5089,-53.0,170.0
17.5133,-3.0,170.0
17.5185,30.0,168.0
17.5234,0.0,168.0
17.5284,-28.0,164.0
17.5333,-5.0,164.0
17.5384,55.0,162.0
17.5435,43.0,162.0
17.5484,-68.0,162.0
17.5535,-57.0,160.0
17.5584,28.0,160.0
17.5635,-24.0,158.0
17.5683,30.0,158.0
17.5733,184.0,160.0
17.5783,-43.0,160.0
17.5835,-310.0,164.0
17.5883,5.0,164.0
17.5935,315.0,168.0
17.5984,25.0,166.0
17.6034,-233.0,170.0
17.6083,-20.0,168.0
17.6137,145.0,170.0
17.6184,-1.0,166.0
17.6235,-70.0,166.0
17.6284,24.0,164.0
17.6334,12.0,164.0
17.6385,-41.0,162.0
17.6433,-7.0,162.0
17.6484,26.0,162.0
17.6533,64.0,162.0
17.6585,33.0,162.0
17.6635,-129.0,164.0
17.6685,-109.0,166.0
17.6735,130.0,168.0
17.6785,138.0,170.0
17.6836,-66.0,170.0
17.6884,-85.0,170.0
17.6934,6.0,170.0
17.6984,-2.0,170.0
17.7033,0.0,170.0
17.7083,41.0,170.0
17.714,20.0,170.0
17.7183,-13.0,168.0
17.7235,-21.0,170.0
17.7284,-21.0,170.0
17.7333,6.0,168.0
17.7383,16.0,168.0
17.7433,-10.0,166.0
17.7483,7.0,166.0
17.7534,35.0,164.0
17.7585,-15.0,164.0
17.7634,-56.0,164.0
17.7683,12.0,164.0
17.7733,59.0,162.0
17.7786,-13.0,162.0
17.7835,-47.0,160.0
17.7883,13.0,160.0
17.7933,22.0,158.0
17.7986,-8.0,156.0
17.8033,9.0,156.0
17.8083,3.0,154.0
17.8133,-31.0,154.0
17.8189,-8.0,152.0
17.8233,22.0,152.0
17.8285,16.0,152.0
17.8335,16.0,152.0
17.8391,-9.0,152.0
17.8434,-52.0,150.0
17.8484,-7.0,150.0
17.8533,61.0,150.0
17.8586,18.0,148.0
17.8633,-50.0,148.0
17.8683,-18.0,148.0
17.8733,33.0,148.0
17.8783,9.0,148.0
17.8833,-19.0,146.0
17.8883,8.0,144.0
17.8936,16.0,144.0
17.8984,-27.0,142.0
17.9033,-22.0,142.0
17.9084,34.0,142.0
17.9137,23.0,142.0
17.9188,-22.0,142.0
17.9233,-6.0,142.0
17.9283,0.0,140.0
17.9333,-26.0,140.0
17.9383,20.0,138.0
17.9433,49.0,136.0
17.9484,-30.0,136.0
17.9533,-47.0,134.0
17.9583,31.0,134.0
17.9633,29.0,134.0
17.9683,-22.0,132.0
17.9734,-6.0,130.0
17.9783,1.0,128.0
17.9833,-7.0,124.0
17.9883,28.0,122.0
17.9933,-1.0,118.0
17.9985,-51.0,116.0
18.0034,31.0,114.0
18.0084,49.0,112.0
18.0133,-68.0,112.0
18.0183,-37.0,110.0
18.0237,88.0,112.0
18.0285,43.0,110.0
18.0333,-74.0,110.0
18.0383,-56.0,108.0
18.0435,32.0,106.0
18.0483,47.0,106.0
18.0534,8.0,102.0
18.0587,-11.0,102.0
18.0639,-29.0,98.0
18.0685,-37.0,96.0
18.0733,35.0,94.0
18.0783,79.0,92.0
18.0833,-34.0,92.0
18.0882,-94.0,92.0
18.0933,35.0,92.0
18.0983,70.0,92.0
18.1033,-52.0,90.0
18.1085,-32.0,88.0
18.1136,85.0,86.0
18.1184,14.0,86.0
18.1233,-108.0,84.0
18.1284,-23.0,84.0
18.1333,103.0,84.0
18.1384,33.0,84.0
18.1437,-83.0,84.0
18.1483,-28.0,84.0
18.1533,70.0,84.0
18.1585,23.0,84.0
18.1633,-46.0,86.0
18.1684,-31.0,86.0
18.1733,-17.0,86.0
18.1784,28.0,86.0
18.1834,98.0,86.0
18.1883,7.0,86.0
18.1934,-133.0,86.0
18.1983,-61.0,86.0
18.2033,95.0,88.0
18.2084,80.0,88.0
18.2134,-14.0,86.0
18.2191,-34.0,86.0
18.2234,-54.0,82.0
18.2287,-35.0,82.0
18.2334,84.0,78.0
18.2384,63.0,80.0
18.2437,-82.0,78.0
18.2484,-22.0,78.0
18.2536,72.0,76.0
18.2584,-57.0,76.0
18.2634,-71.0,76.0
18.2685,121.0,78.0
18.2734,70.0,80.0
18.2785,-142.0,80.0
18.2836,-55.0,82.0
18.2885,125.0,84.0
18.2935,29.0,82.0
18.2985,-82.0,84.0
18.3034,0.0,82.0
18.3084,32.0,80.0
18.3137,-30.0,78.0
18.3184,-8.0,76.0
18.3234,41.0,76.0
18.3284,14.0,76.0
18.3334,-24.0,76.0
18.3385,-17.0,76.0
18.3434,-3.0,76.0
18.3484,18.0,76.0
18.3533,20.0,76.0
18.3591,-37.0,76.0
18.3643,-28.0,76.0
18.3685,64.0,76.0
18.3734,24.0,76.0
18.3783,-68.0,78.0
18.3833,-4.0,78.0
18.3883,34.0,78.0
18.3933,-21.0,78.0
18.3984,22.0,78.0
18.4034,31.0,78.0
18.4083,-59.0,78.0
18.4133,-5.0,78.0
18.4183,46.0,78.0
18.4233,-41.0,78.0
18.4284,-12.0,78.0
18.4334,51.0,78.0
18.4383,-1.0,78.0
18.4434,-3.0,78.0
18.4484,-8.0,78.0
18.4535,-43.0,78.0
18.4583,24.0,78.0
18.4633,28.0,78.0
18.4683,-21.0,78.0
18.4733,52.0,80.0
18.4784,-3.0,80.0
18.4835,-135.0,80.0
18.4884,17.0,80.0
18.4934,124.0,82.0
18.4984,-12.0,82.0
18.5033,0.0,80.0
18.5084,26.0,80.0
18.5136,-134.0,82.0
18.5185,-61.0,84.0
18.5236,170.0,86.0
18.5284,76.0,86.0
18.5334,-107.0,88.0
18.5388,-53.0,88.0
18.5434,6.0,88.0
18.5484,12.0,88.0
18.5535,77.0,88.0
18.5585,28.0,88.0
18.5634,-89.0,90.0
18.5685,-39.0,90.0
18.5734,22.0,90.0
18.5784,0.0,90.0
18.5834,54.0,90.0
18.5884,49.0,90.0
18.5937,-75.0,92.0
18.5985,-49.0,92.0
18.6034,59.0,92.0
18.6087,1.0,92.0
18.6134,-47.0,92.0
18.6185,36.0,92.0
18.6234,38.0,94.0
18.6288,-39.0,94.0
18.6334,-11.0,94.0
18.6384,29.0,94.0
18.6434,-21.0,94.0
18.6484,-24.0,92.0
18.6534,25.0,92.0
18.6585,11.0,92.0
18.6636,-3.0,90.0
18.6684,14.0,90.0
18.6733,-8.0,88.0
18.6784,-23.0,88.0
18.6832,10.0,88.0
18.6885,-8.0,88.0
18.6936,-47.0,88.0
18.6983,44.0,88.0
18.7033,106.0,90.0
18.7083,-42.0,90.0
18.7137,-111.0,90.0
18.7184,21.0,90.0
18.7234,32.0,90.0
18.7283,-32.0,90.0
18.7333,73.0,90.0
18.7385,80.0,90.0
18.7435,-123.0,90.0
18.7485,-112.0,92.0
18.7534,101.0,92.0
18.7583,82.0,94.0
18.7635,-66.0,92.0
18.7687,-9.0,92.0
18.7733,68.0,92.0
18.7785,-44.0,92.0
18.7834,-84.0,92.0
18.7884,52.0,92.0
18.7934,69.0,92.0
18.7986,-39.0,92.0
18.8034,-22.0,92.0
18.8085,23.0,92.0
18.8134,-23.0,92.0
18.8184,-6.0,92.0
18.8234,53.0,92.0
18.8284,2.0,92.0
18.8334,-61.0,90.0
18.8383,-18.0,90.0
18.8433,36.0,88.0
18.8483,26.0,88.0
18.8539,2.0,88.0
18.8583,-6.0,88.0
18.8634,-16.0,86.0
18.8684,-15.0,86.0
18.8734,-1.0,84.0
18.8783,13.0,84.0
18.8834,18.0,84.0
18.8884,3.0,82.0
18.8933,-7.0,82.0
18.8983,-13.0,82.0
18.9033,-21.0,80.0
18.9084,14.0,78.0
18.9135,41.0,78.0
18.9184,-25.0,76.0
18.9234,-37.0,76.0
18.9284,56.0,76.0
18.9333,19.0,74.0
18.9383,-76.0,74.0
18.9433,-6.0,74.0
18.9485,38.0,74.0
18.9535,19.0,74.0
18.9584,46.0,76.0
18.9634,-68.0,76.0
18.9683,-107.0,78.0
18.9732,134.0,78.0
18.9785,77.0,80.0
18.9834,-164.0,82.0
18.9882,38.0,82.0
18.9933,133.0,84.0
18.9983,-161.0,86.0
19.0034,-65.0,88.0
19.0084,198.0,90.0
19.0133,-1.0,88.0
19.0183,-136.0,90.0
19.0233,44.0,90.0
19.0283,37.0,90.0
19.0333,-59.0,92.0
19.0383,27.0,92.0
19.0433,50.0,92.0
19.0483,-26.0,90.0
19.0534,-15.0,92.0
19.0584,-14.0,90.0
19.0633,-36.0,90.0
19.0683,42.0,90.0
19.0734,75.0,92.0
19.0784,-25.0,92.0
19.0833,-81.0,92.0
19.0885,-22.0,94.0
19.0933,67.0,94.0
19.0983,65.0,94.0
19.1033,-57.0,94.0
19.1083,-65.0,96.0
19.1135,53.0,96.0
19.1184,16.0,96.0
19.1233,-44.0,94.0
19.1283,48.0,94.0
19.1333,27.0,94.0
19.1382,-80.0,94.0
19.1433,-3.0,94.0
19.1483,65.0,94.0
19.1533,-29.0,94.0
19.1583,-30.0,92.0
19.1634,58.0,90.0
19.1684,11.0,90.0
19.1735,-51.0,90.0
19.1784,-1.0,88.0
19.1833,16.0,88.0
19.1883,-19.0,88.0
19.1939,3.0,88.0
19.1983,37.0,88.0
19.2033,9.0,86.0
19.2085,-14.0,86.0
19.2132,-40.0,86.0
19.2184,-53.0,86.0
19.2234,62.0,88.0
19.2284,117.0,88.0
19.2333,-51.0,88.0
19.2383,-126.0,88.0
19.2433,27.0,88.0
19.2483,71.0,90.0
19.2533,-48.0,90.0
19.2583,-9.0,90.0
19.2633,109.0,90.0
19.2686,-11.0,90.0
19.2733,-122.0,92.0
19.2783,38.0,92.0
19.2834,35.0,92.0
19.2885,-139.0,94.0
19.2935,73.0,94.0
19.2983,281.0,98.0
19.3033,-77.0,100.0
19.3083,-338.0,104.0
19.3135,-18.0,106.0
19.3184,239.0,108.0
19.3235,69.0,110.0
19.3284,-84.0,110.0
19.3333,-9.0,110.0
19.3385,19.0,110.0
19.3433,-60.0,108.0
19.3483,-32.0,108.0
19.3533,52.0,108.0
19.3583,13.0,108.0
19.3642,-2.0,108.0
19.369,47.0,108.0
19.3733,-22.0,106.0
19.3783,-64.0,106.0
19.3836,22.0,104.0
19.3883,27.0,104.0
19.3933,-22.0,102.0
19.3985,1.0,100.0
19.4034,25.0,100.0
19.4083,15.0,100.0
19.4135,-19.0,100.0
19.4183,-76.0,100.0
19.4233,-30.0,100.0
19.4287,135.0,100.0
19.4334,125.0,102.0
19.4384,-122.0,102.0
19.4435,-180.0,106.0
19.4483,35.0,106.0
19.4533,130.0,108.0
19.4584,50.0,108.0
19.4633,-15.0,108.0
19.4683,-65.0,108.0
19.4733,-77.0,108.0
19.4783,7.0,108.0
19.4834,98.0,110.0
19.4885,44.0,110.0
19.4935,-58.0,110.0
19.4983,3.0,110.0
19.5033,37.0,110.0
19.5083,-130.0,112.0
19.5137,-115.0,114.0
19.5183,182.0,116.0
19.5234,235.0,120.0
19.5283,-64.0,122.0
19.5334,-238.0,124.0
19.5384,-132.0,126.0
19.5433,62.0,128.0
19.5487,230.0,130.0
19.5534,157.0,132.0
19.5583,-152.0,134.0
19.5633,-233.0,138.0
19.5683,-6.0,136.0
19.5733,140.0,138.0
19.5784,112.0,140.0
19.5833,-2.0,140.0
19.5883,-110.0,140.0
19.5933,-59.0,140.0
19.5984,29.0,140.0
19.6033,27.0,140.0
19.6086,64.0,140.0
19.6133,15.0,138.0
19.6183,-130.0,138.0
19.6234,4.0,136.0
19.6283,160.0,138.0
19.6333,-68.0,136.0
19.6384,-141.0,136.0
19.6434,128.0,138.0
19.6483,76.0,136.0
19.6533,-189.0,138.0
19.6583,-41.0,136.0
19.6639,221.0,140.0
19.6682,80.0,140.0
19.6733,-132.0,142.0
19.6783,-113.0,142.0
19.6835,-62.0,144.0
19.6883,51.0,144.0
19.6933,206.0,146.0
19.6985,56.0,148.0
19.7034,-201.0,150.0
19.7084,-83.0,150.0
19.7137,110.0,150.0
19.7184,-16.0,150.0
19.7235,-45.0,150.0
19.7285,153.0,152.0
19.7334,24.0,152.0
19.7383,-207.0,154.0
19.7434,-13.0,154.0
19.7485,148.0,154.0
19.7535,17.0,154.0
19.7584,-45.0,154.0
19.7638,-71.0,154.0
19.7683,-15.0,154.0
19.7733,152.0,156.0
19.7785,-1.0,154.0
19.7835,-164.0,158.0
19.7883,85.0,158.0
19.7933,53.0,158.0
19.7984,-218.0,160.0
19.8033,91.0,162.0
19.8085,334.0,166.0
19.8135,-132.0,168.0
19.8183,-330.0,172.0
19.8233,63.0,174.0
19.8284,182.0,176.0
19.8333,19.0,176.0
19.8383,8.0,176.0
19.8434,-58.0,176.0
19.8483,-124.0,178.0
19.8535,53.0,178.0
19.8584,107.0,180.0
19.8633,-22.0,178.0
19.8686,4.0,178.0
19.8733,4.0,176.0
19.8783,-86.0,176.0
19.8835,4.0,176.0
19.8886,68.0,176.0
19.8933,-48.0,176.0
19.8985,-23.0,176.0
19.9033,100.0,176.0
19.9083,36.0,176.0
19.9135,-80.0,176.0
19.9184,-103.0,176.0
19.9243,-31.0,176.0
19.9285,166.0,176.0
19.9333,174.0,178.0
19.9383,-160.0,176.0
19.9436,-250.0,178.0
19.9483,71.0,174.0
19.9534,202.0,178.0
19.9584,30.0,174.0
19.9633,-74.0,174.0
19.9694,-62.0,174.0
19.9734,-28.0,174.0
19.9784,28.0,174.0
19.9833,49.0,174.0
19.9883,9.0,174.0
19.9933,-23.0,174.0
19.9984,-13.0,174.0
20.0035,6.0,174.0
20.0083,2.0,172.0
20.0133,-8.0,172.0
20.0182,-4.0,172.0
20.0236,9.0,172.0
20.0285,14.0,172.0
20.0334,2.0,172.0
20.0384,-15.0,172.0
20.0433,-16.0,172.0
20.0483,14.0,172.0
20.0533,19.0,172.0
20.0583,-29.0,170.0
20.0633,-16.0,170.0
20.0693,61.0,170.0
20.0734,19.0,168.0
20.0783,-73.0,166.0
20.0833,-10.0,164.0
20.0882,28.0,164.0
20.0933,-53.0,162.0
20.0984,49.0,162.0
20.1033,173.0,166.0
20.1085,-81.0,166.0
20.1139,-280.0,168.0
20.1182,34.0,168.0
20.1233,287.0,172.0
20.1285,23.0,172.0
20.1333,-175.0,174.0
20.1385,-17.0,174.0
20.1433,17.0,174.0
20.1482,-17.0,172.0
20.1533,92.0,172.0
20.1583,-16.0,168.0
20.1634,-131.0,166.0
20.1685,114.0,168.0
20.1735,128.0,166.0
20.1783,-155.0,166.0
20.1842,-87.0,166.0
20.1884,71.0,164.0
20.1934,9.0,162.0
20.1983,55.0,160.0
20.2033,50.0,158.0
20.2083,-97.0,160.0
20.2133,-36.0,158.0
20.2183,19.0,156.0
20.2233,-35.0,156.0
20.2286,103.0,156.0
20.2333,84.0,156.0
20.2383,-180.0,160.0
20.2433,-60.0,160.0
20.2483,167.0,162.0
20.2533,-12.0,162.0
20.2584,-102.0,160.0
20.2634,57.0,162.0
20.2683,59.0,160.0
20.2737,-12.0,160.0
20.2784,-47.0,158.0
20.2834,-86.0,158.0
20.2883,7.0,156.0
20.2934,136.0,156.0
20.2984,60.0,156.0
20.3032,-89.0,154.0
20.3084,-90.0,154.0
20.3136,-3.0,152.0
20.3183,36.0,150.0
20.3232,54.0,150.0
20.3283,64.0,150.0
20.3333,-11.0,148.0
20.3387,-125.0,148.0
20.3435,-95.0,146.0
20.3483,110.0,148.0
20.3534,172.0,148.0
20.3583,-57.0,148.0
20.3634,-163.0,150.0
20.3683,13.0,148.0
20.3733,100.0,150.0
20.3783,15.0,146.0
20.3835,-46.0,148.0
20.3883,-61.0,146.0
20.3933,19.0,146.0
20.3983,126.0,148.0
20.4035,-14.0,146.0
20.4083,-161.0,148.0
20.4136,44.0,146.0
20.4183,136.0,148.0
20.4233,-120.0,148.0
20.4285,-107.0,148.0
20.4334,190.0,150.0
20.4383,152.0,150.0
20.4434,-169.0,150.0
20.4483,-246.0,150.0
20.4533,63.0,148.0
20.4583,284.0,148.0
20.4632,25.0,148.0
20.4683,-209.0,148.0
20.4733,-7.0,148.0
20.4795,64.0,148.0
20.4835,-112.0,150.0
20.4883,55.0,148.0
20.4935,260.0,152.0
20.4983,-82.0,150.0
20.5033,-331.0,156.0
20.5085,37.0,156.0
20.5134,267.0,160.0
20.5185,0.0,158.0
20.5235,-114.0,160.0
20.5283,21.0,160.0
20.5336,-8.0,160.0
20.5385,-55.0,160.0
20.5435,38.0,158.0
20.5484,31.0,158.0
20.5534,-28.0,158.0
20.5584,49.0,158.0
20.5642,53.0,158.0
20.5685,-116.0,156.0
20.5735,-108.0,156.0
20.5784,111.0,154.0
20.5833,140.0,154.0
20.5883,-52.0,152.0
20.5933,-117.0,152.0
20.5984,13.0,152.0
20.6034,64.0,152.0
20.6083,-39.0,150.0
20.6133,-43.0,150.0
20.6183,90.0,152.0
20.6233,85.0,152.0
20.6284,-90.0,154.0
20.6338,-141.0,156.0
20.6383,39.0,156.0
20.6435,145.0,158.0
20.6483,7.0,158.0
20.6533,-79.0,160.0
20.6584,-27.0,160.0
20.6635,-51.0,160.0
20.6683,5.0,160.0
20.6734,205.0,164.0
20.6784,86.0,164.0
20.6838,-277.0,168.0
20.6883,-190.0,172.0
20.6935,209.0,174.0
20.6985,186.0,176.0
20.7033,-80.0,178.0
20.7085,-77.0,178.0
20.7135,-5.0,178.0
20.7184,-7.0,176.0
20.7234,42.0,178.0
20.7282,13.0,178.0
20.7333,-70.0,178.0
20.7384,-19.0,176.0
20.7434,73.0,176.0
20.7484,70.0,176.0
20.7534,-23.0,172.0
20.7586,-111.0,172.0
20.7634,-52.0,168.0
20.7684,92.0,170.0
20.7735,109.0,168.0
20.7785,-27.0,168.0
20.7834,-115.0,170.0
20.7883,-27.0,170.0
20.7933,73.0,170.0
20.7984,27.0,170.0
20.8036,-36.0,168.0
20.8084,2.0,168.0
20.8133,47.0,166.0
20.8183,18.0,164.0
20.8232,-81.0,164.0
20.8283,-118.0,164.0
20.8334,70.0,166.0
20.8385,227.0,168.0
20.8434,-3.0,168.0
20.8484,-265.0,170.0
20.8534,-66.0,170.0
20.8582,222.0,174.0
20.8634,95.0,174.0
20.8685,-126.0,174.0
20.8733,-74.0,174.0
20.8784,11.0,172.0
20.8832,14.0,172.0
20.8883,65.0,170.0
20.8934,46.0,170.0
20.8986,-63.0,170.0
20.9033,-52.0,170.0
20.9084,18.0,168.0
20.9135,-6.0,168.0
20.9185,-1.0,168.0
20.9236,60.0,168.0
20.9283,18.0,168.0
20.9334,-40.0,166.0
20.9384,-2.0,166.0
20.9434,-12.0,164.0
20.9483,-68.0,164.0
20.9534,0.0,164.0
20.9583,122.0,166.0
20.9633,77.0,166.0
20.9683,-112.0,166.0
20.9734,-123.0,168.0
20.9785,74.0,168.0
20.9832,95.0,168.0
20.9882,-48.0,166.0
20.9933,-35.0,164.0
20.9984,23.0,164.0
21.0033,-18.0,162.0
21.0085,26.0,162.0
21.0135,70.0,162.0
21.0183,-79.0,162.0
21.0235,-115.0,164.0
21.0285,98.0,164.0
21.0335,113.0,166.0
21.0383,-99.0,164.0
21.0433,-66.0,166.0
21.0484,115.0,164.0
21.0534,32.0,164.0
21.0583,-106.0,164.0
21.0633,-21.0,162.0
21.0685,32.0,162.0
21.0735,-18.0,158.0
21.0784,47.0,158.0
21.0836,78.0,156.0
21.0886,-55.0,152.0
21.0933,-77.0,154.0
21.0983,3.0,148.0
21.1032,8.0,148.0
21.1083,46.0,146.0
21.1136,41.0,146.0
21.1185,-72.0,146.0
21.1235,-17.0,144.0
21.1283,89.0,146.0
21.1333,-43.0,142.0
21.1382,-80.0,142.0
21.1432,93.0,138.0
21.1483,23.0,138.0
21.1534,-132.0,136.0
21.1582,34.0,136.0
21.1633,149.0,138.0
21.1685,-25.0,138.0
21.1735,-108.0,138.0
21.1785,-29.0,138.0
21.1834,22.0,138.0
21.1884,47.0,138.0
21.1933,27.0,138.0
21.1983,-25.0,138.0
21.2035,-4.0,138.0
21.2083,30.0,136.0
21.2135,-31.0,134.0
21.2183,-74.0,134.0
21.2232,17.0,132.0
21.2286,92.0,132.0
21.2334,20.0,132.0
21.2385,-42.0,132.0
21.2434,-17.0,130.0
21.2483,-30.0,130.0
21.2534,-38.0,130.0
21.2587,63.0,130.0
21.2633,96.0,130.0
21.2685,-50.0,130.0
21.2733,-105.0,130.0
21.2782,32.0,130.0
21.2834,65.0,128.0
21.2885,-40.0,128.0
21.2935,-19.0,128.0
21.2983,60.0,128.0
21.3035,-2.0,128.0
21.3082,-67.0,128.0
21.3133,9.0,126.0
21.319,61.0,124.0
21.3237,-19.0,120.0
21.3285,-59.0,118.0
21.3332,28.0,116.0
21.3382,67.0,114.0
21.3435,-28.0,114.0
21.3485,-70.0,114.0
21.3533,26.0,114.0
21.3584,46.0,114.0
21.3633,-44.0,114.0
21.3685,2.0,114.0
21.3733,92.0,114.0
21.3785,-39.0,114.0
21.3835,-136.0,116.0
21.3884,29.0,114.0
21.3935,123.0,116.0
21.3983,-1.0,114.0
21.4033,-56.0,114.0
21.4086,4.0,114.0
21.4133,-7.0,112.0
21.4184,-34.0,112.0
21.4235,31.0,110.0
21.4286,60.0,112.0
21.4335,-17.0,110.0
21.4387,-75.0,112.0
21.4434,-33.0,110.0
21.4484,87.0,112.0
21.4535,104.0,114.0
21.4584,-83.0,114.0
21.4635,-138.0,116.0
21.4683,50.0,114.0
21.4734,88.0,114.0
21.4784,-4.0,110.0
21.4836,24.0,112.0
21.4884,-18.0,108.0
21.4935,-152.0,108.0
21.4984,-4.0,106.0
21.5034,241.0,108.0
21.5097,80.0,106.0
21.5136,-234.0,110.0
21.5187,-173.0,112.0
21.5234,112.0,114.0
21.5284,185.0,116.0
21.5335,45.0,116.0
21.5387,-67.0,116.0
21.5433,-103.0,116.0
21.5484,-76.0,118.0
21.5536,39.0,118.0
21.5584,95.0,118.0
21.5633,0.0,118.0
21.5684,13.0,118.0
21.5734,99.0,118.0
21.5784,-83.0,120.0
21.5834,-242.0,124.0
21.5883,16.0,122.0
21.5933,241.0,126.0
21.5983,43.0,126.0
21.6033,-105.0,126.0
21.6083,57.0,126.0
21.6133,26.0,124.0
21.6183,-214.0,126.0
21.6235,-106.0,126.0
21.6284,208.0,128.0
21.6333,242.0,132.0
21.6384,-9.0,132.0
21.6434,-284.0,136.0
21.6483,-197.0,138.0
21.6536,217.0,140.0
21.6585,239.0,144.0
21.6635,-125.0,144.0
21.6835,-133.0,144.0
21.6838,34.0,142.0
21.684,22.0,142.0
21.6842,92.0,142.0
21.6887,10.0,140.0
21.6934,-221.0,144.0
21.6983,-9.0,142.0
21.7033,232.0,144.0
21.7085,32.0,144.0
21.7133,-72.0,146.0
21.7183,-51.0,146.0
21.7234,-143.0,146.0
21.7283,7.0,146.0
21.7333,224.0,148.0
21.7383,63.0,150.0
21.7438,-119.0,150.0
21.7483,-58.0,152.0
21.7533,-27.0,150.0
21.7583,-34.0,150.0
21.7633,60.0,150.0
21.7684,104.0,152.0
21.7734,15.0,150.0
21.7783,-68.0,150.0
21.7834,-77.0,150.0
21.7884,-39.0,150.0
21.7933,46.0,150.0
21.7983,115.0,150.0
21.8033,26.0,148.0
21.8083,-105.0,150.0
21.8134,-34.0,148.0
21.8183,61.0,150.0
21.8234,-34.0,150.0
21.8286,-48.0,150.0
21.8333,94.0,150.0
21.8385,56.0,150.0
21.8434,-91.0,152.0
21.8483,-47.0,152.0
21.8535,49.0,152.0
21.8583,22.0,152.0
21.8633,-11.0,152.0
21.8684,8.0,150.0
21.8734,-1.0,150.0
21.8783,-37.0,150.0
21.8833,-28.0,150.0
21.8885,45.0,150.0
21.8933,96.0,152.0
21.8983,-18.0,150.0
21.9034,-162.0,152.0
21.9083,-44.0,152.0
21.9134,184.0,154.0
21.9183,116.0,154.0
21.9233,-161.0,156.0
21.9284,-141.0,158.0
21.9333,163.0,160.0
21.9384,101.0,160.0
21.9435,-247.0,164.0
21.9483,-66.0,164.0
21.9533,353.0,170.0
21.9583,110.0,170.0
21.9633,-361.0,176.0
21.9683,-200.0,178.0
21.9735,252.0,182.0
21.9783,236.0,184.0
21.9834,-110.0,186.0
21.9883,-172.0,186.0
21.9933,26.0,186.0
21.9983,69.0,188.0
22.0035,-8.0,186.0
22.0083,-8.0,186.0
22.0132,-9.0,186.0
22.0183,-7.0,184.0
22.0233,59.0,184.0
22.0285,27.0,184.0
22.0335,-96.0,184.0
22.0383,-50.0,184.0
22.0432,71.0,184.0
22.0483,20.0,184.0
22.0535,-13.0,184.0
22.0582,74.0,186.0
22.0635,-3.0,184.0
22.0683,-155.0,186.0
22.0733,-33.0,186.0
22.0784,158.0,188.0
22.0832,68.0,188.0
22.0884,-111.0,188.0
22.0935,-76.0,188.0
22.0982,76.0,188.0
22.1033,75.0,188.0
22.1083,-58.0,188.0
22.1136,-71.0,188.0
22.1183,35.0,188.0
22.1233,58.0,188.0
22.1284,-23.0,188.0
22.1333,-46.0,186.0
22.1383,36.0,188.0
22.1433,48.0,184.0
22.1483,-53.0,184.0
22.1533,-51.0,180.0
22.1594,51.0,178.0
22.1632,42.0,178.0
22.1683,-30.0,176.0
22.1733,-22.0,174.0
22.1782,0.0,174.0
22.1833,-2.0,172.0
22.1883,23.0,172.0
22.1933,34.0,172.0
22.1983,-7.0,170.0
22.2033,-52.0,170.0
22.2083,-40.0,172.0
22.2134,32.0,170.0
22.219,68.0,170.0
22.2233,11.0,166.0
22.2288,-43.0,166.0
22.2333,-29.0,164.0
22.2383,-11.0,162.0
22.2433,-7.0,162.0
22.2483,38.0,162.0
22.2533,69.0,162.0
22.2583,-14.0,158.0
22.2634,-96.0,158.0
22.2683,-19.0,156.0
22.2733,68.0,152.0
22.2783,8.0,152.0
22.2834,-17.0,148.0
22.2883,47.0,146.0
22.2935,-16.0,144.0
22.2983,-96.0,140.0
22.3033,29.0,140.0
22.3085,87.0,138.0
22.3134,-49.0,138.0
22.3183,-29.0,140.0
22.324,77.0,138.0
22.3288,-25.0,140.0
22.3335,-85.0,136.0
22.3384,46.0,138.0
22.3433,49.0,134.0
22.3484,-40.0,134.0
22.3533,11.0,134.0
22.3584,19.0,134.0
22.3633,-59.0,132.0
22.3683,5.0,132.0
22.3735,69.0,130.0
22.3783,-25.0,128.0
22.3834,-48.0,128.0
22.3883,42.0,128.0
22.3933,24.0,128.0
22.3984,-69.0,128.0
22.4036,-27.0,128.0
22.4083,95.0,128.0
22.4133,53.0,128.0
22.4183,-96.0,128.0
22.4233,-63.0,128.0
22.4283,79.0,128.0
22.4333,30.0,128.0
22.4383,-94.0,128.0
22.4434,11.0,128.0
22.4484,154.0,128.0
22.4533,-8.0,128.0
22.4587,-199.0,130.0
22.4633,-31.0,130.0
22.4683,177.0,132.0
22.4733,42.0,132.0
22.4785,-105.0,132.0
22.4833,2.0,132.0
22.4883,33.0,130.0
22.4933,-59.0,132.0
22.4983,4.0,130.0
22.5033,76.0,132.0
22.5083,-16.0,132.0
22.5134,-43.0,132.0
22.5185,33.0,132.0
22.5233,-1.0,132.0
22.5283,-68.0,132.0
22.5333,15.0,132.0
22.5385,94.0,132.0
22.5433,-10.0,130.0
22.5483,-85.0,130.0
22.5533,32.0,128.0
22.5583,51.0,128.0
22.5633,-85.0,126.0
22.5683,-28.0,124.0
22.5735,124.0,124.0
22.5783,19.0,122.0
22.5834,-110.0,120.0
22.5883,0.0,120.0
22.5933,61.0,114.0
22.5983,-21.0,114.0
22.6032,-2.0,108.0
22.6082,19.0,104.0
22.6132,-53.0,102.0
22.6182,4.0,98.0
22.6233,85.0,98.0
22.6287,-32.0,96.0
22.6333,-73.0,96.0
22.6383,44.0,96.0
22.6433,15.0,96.0
22.6483,-34.0,96.0
22.6533,53.0,98.0
22.6583,25.0,98.0
22.6633,-78.0,98.0
22.6683,-36.0,98.0
22.6732,31.0,96.0
22.6783,45.0,96.0
22.6833,51.0,96.0
22.6884,-28.0,96.0
22.6935,-106.0,98.0
22.6983,-3.0,96.0
22.7033,103.0,98.0
22.7083,15.0,96.0
22.7134,-72.0,96.0
22.7183,0.0,94.0
22.7233,66.0,94.0
22.7282,-13.0,92.0
22.7336,-92.0,94.0
22.7384,4.0,92.0
22.7432,125.0,92.0
22.7484,16.0,92.0
22.7535,-148.0,94.0
22.7583,-33.0,94.0
22.7633,143.0,94.0
22.7683,48.0,94.0
22.7732,-95.0,96.0
22.7785,-60.0,96.0
22.7832,16.0,96.0
22.7882,46.0,96.0
22.7932,42.0,96.0
22.7982,7.0,94.0
22.8032,-40.0,94.0
22.8084,-64.0,96.0
22.8137,-10.0,94.0
22.8182,66.0,96.0
22.8233,42.0,96.0
22.8285,-18.0,96.0
22.8334,-12.0,96.0
22.8387,-10.0,96.0
22.8435,-52.0,96.0
22.8482,-26.0,96.0
22.8533,103.0,98.0
22.8584,110.0,98.0
22.8633,-117.0,100.0
22.8684,-171.0,102.0
22.8733,109.0,102.0
22.8784,140.0,104.0
22.8833,-110.0,106.0
22.8883,-14.0,106.0
22.8933,138.0,108.0
22.8983,-124.0,108.0
22.9034,-171.0,110.0
22.9083,187.0,112.0
22.9136,169.0,114.0
22.9184,-185.0,116.0
22.9233,-124.0,118.0
22.9283,207.0,122.0
22.9334,80.0,122.0
22.9383,-275.0,124.0
22.9434,-76.0,126.0
22.9483,290.0,128.0
22.9533,78.0,130.0
22.9584,-184.0,132.0
22.9633,-35.0,132.0
22.9684,24.0,130.0
22.9733,-16.0,130.0
22.9783,97.0,130.0
22.9835,28.0,130.0
22.9883,-154.0,132.0
22.9934,-32.0,132.0
22.9984,128.0,134.0
23.0035,52.0,134.0
23.0083,-44.0,134.0
23.0133,-62.0,134.0
23.0182,8.0,134.0
23.0233,89.0,134.0
23.029,-62.0,136.0
23.0334,-180.0,138.0
23.0389,115.0,138.0
23.0433,257.0,142.0
23.0483,-110.0,142.0
23.0535,-191.0,144.0
23.0582,92.0,144.0
23.0634,-16.0,144.0
23.0683,-96.0,144.0
23.0733,242.0,148.0
23.0783,105.0,148.0
23.0834,-364.0,152.0
23.0883,-98.0,152.0
23.0935,352.0,158.0
23.0983,80.0,156.0
23.1033,-264.0,160.0
23.1084,-71.0,158.0
23.1134,157.0,160.0
23.1182,83.0,158.0
23.1235,-46.0,160.0
23.1283,-95.0,160.0
23.1333,-47.0,160.0
23.1383,76.0,162.0
23.1436,81.0,162.0
23.1483,-27.0,162.0
23.1533,-61.0,162.0
23.1583,-34.0,162.0
23.1633,18.0,162.0
23.1684,91.0,162.0
23.1733,39.0,164.0
23.1785,-102.0,164.0
23.1833,-85.0,164.0
23.1885,42.0,164.0
23.1934,72.0,164.0
23.1985,41.0,164.0
23.2034,-26.0,164.0
23.2084,-113.0,164.0
23.2136,0.0,162.0
23.2183,188.0,166.0
23.2241,33.0,164.0
23.2287,-243.0,168.0
23.2334,-98.0,168.0
23.2384,225.0,172.0
23.2436,149.0,174.0
23.2484,-139.0,176.0
23.2534,-124.0,176.0
23.2583,65.0,178.0
23.2633,34.0,178.0
23.2683,-80.0,178.0
23.2733,20.0,178.0
23.2784,152.0,178.0
23.2834,32.0,178.0
23.2884,-166.0,182.0
23.2934,-135.0,182.0
23.2984,77.0,184.0
23.3033,188.0,184.0
23.3082,55.0,186.0
23.3134,-180.0,188.0
23.3183,-164.0,190.0
23.3233,145.0,190.0
23.3283,193.0,194.0
23.3332,-111.0,194.0
23.3384,-119.0,196.0
23.3434,107.0,196.0
23.3483,5.0,196.0
23.3533,-134.0,196.0
23.3582,51.0,196.0
23.3637,156.0,198.0
23.3687,-29.0,198.0
23.3733,-140.0,200.0
23.3784,-17.0,200.0
23.3834,77.0,198.0
23.3886,34.0,200.0
23.3932,15.0,198.0
23.3984,-4.0,196.0
23.4033,-86.0,196.0
23.4086,-50.0,196.0
23.4132,84.0,196.0
23.4182,82.0,196.0
23.4233,-37.0,196.0
23.4283,-75.0,196.0
23.4333,13.0,196.0
23.4383,90.0,198.0
23.4433,-9.0,198.0
23.4483,-162.0,198.0
23.4532,-24.0,198.0
23.4589,224.0,202.0
23.4639,70.0,202.0
23.469,-212.0,204.0
23.4733,-77.0,206.0
23.4783,167.0,208.0
23.4834,64.0,208.0
23.4883,-137.0,210.0
23.4934,-62.0,210.0
23.4984,119.0,210.0
23.5033,44.0,208.0
23.5083,-117.0,208.0
23.5134,9.0,206.0
23.5183,148.0,206.0
23.5232,-54.0,206.0
23.5283,-185.0,208.0
23.5333,44.0,206.0
23.5383,180.0,208.0
23.5434,8.0,204.0
23.5483,-120.0,204.0
23.5533,-48.0,202.0
23.5585,44.0,200.0
23.5633,53.0,198.0
23.5683,17.0,196.0
23.5734,-64.0,196.0
23.5786,-83.0,192.0
23.5832,94.0,192.0
23.5883,160.0,190.0
23.5933,-98.0,190.0
23.5983,-193.0,192.0
23.6033,62.0,192.0
23.6086,157.0,194.0
23.6133,-10.0,194.0
23.6183,-79.0,194.0
23.6235,-33.0,194.0
23.6284,0.0,190.0
23.6333,38.0,190.0
23.6383,29.0,190.0
23.6433,13.0,188.0
23.6483,37.0,188.0
23.6533,-68.0,188.0
23.6583,-145.0,190.0
23.6633,68.0,190.0
23.6683,173.0,192.0
23.6733,-48.0,190.0
23.6784,-105.0,190.0
23.6833,66.0,188.0
23.6882,31.0,186.0
23.6932,-89.0,184.0
23.6982,-6.0,182.0
23.7032,60.0,184.0
23.7083,11.0,182.0
23.7134,3.0,178.0
23.7185,-31.0,178.0
23.7235,-57.0,172.0
23.7283,80.0,172.0
23.7333,99.0,168.0
23.7383,-148.0,170.0
23.7433,-156.0,168.0
23.7483,166.0,170.0
23.7534,204.0,170.0
23.7583,-83.0,170.0
23.7633,-179.0,172.0
23.7685,-34.0,172.0
23.7733,67.0,172.0
23.7784,72.0,172.0
23.7834,53.0,170.0
23.7882,-9.0,170.0
23.7932,-110.0,172.0
23.7984,-63.0,172.0
23.8034,122.0,174.0
23.8083,76.0,174.0
23.8133,-152.0,176.0
23.8183,-66.0,174.0
23.8233,175.0,176.0
23.8284,99.0,176.0
23.8334,-66.0,176.0
23.8384,-98.0,178.0
23.8435,-161.0,180.0
23.8483,-67.0,178.0
23.8533,276.0,184.0
23.8584,306.0,186.0
23.8632,-118.0,186.0
23.8682,-362.0,188.0
23.8732,-147.0,190.0
23.8782,150.0,188.0
23.8832,221.0,188.0
23.8883,104.0,188.0
23.8934,-47.0,188.0
23.8983,-160.0,188.0
23.9032,-137.0,190.0
23.9083,54.0,190.0
23.9134,161.0,192.0
23.9182,23.0,190.0
23.9232,-99.0,192.0
23.9282,-23.0,188.0
23.9333,48.0,188.0
23.9382,17.0,186.0
23.9432,5.0,184.0
23.9484,-32.0,184.0
23.9534,-70.0,182.0
23.9583,39.0,180.0
23.9632,103.0,180.0
23.9682,-16.0,176.0
23.9733,-75.0,176.0
23.9783,-24.0,174.0
23.9832,-21.0,172.0
23.9882,28.0,174.0
23.9932,176.0,174.0
23.9983,60.0,174.0
24.0034,-317.0,176.0
24.0082,-214.0,180.0
24.0134,341.0,182.0
24.0182,307.0,188.0
24.0233,-245.0,190.0
24.0285,-253.0,194.0
24.0332,155.0,196.0
24.0382,125.0,198.0
24.0435,-142.0,198.0
24.0482,-39.0,198.0
24.0534,141.0,198.0
24.0585,-3.0,198.0
24.0632,-115.0,198.0
24.0684,68.0,198.0
24.0734,114.0,200.0
24.0785,-145.0,202.0
24.0833,-156.0,204.0
24.0883,181.0,204.0
24.0934,206.0,206.0
24.0986,-177.0,206.0
24.1032,-257.0,208.0
24.1083,176.0,208.0
24.1133,305.0,212.0
24.1184,-180.0,212.0
24.1235,-295.0,216.0
24.1284,170.0,216.0
24.1335,172.0,218.0
24.1384,-165.0,218.0
24.1432,28.0,218.0
24.1482,190.0,220.0
24.1534,-182.0,222.0
24.1604,-211.0,224.0
24.1634,206.0,226.0
24.1684,172.0,226.0
24.1738,-146.0,226.0
24.1785,-83.0,226.0
24.1834,94.0,226.0
24.1883,0.0,224.0
24.1946,-72.0,226.0
24.1986,54.0,226.0
24.2033,53.0,226.0
24.2084,-92.0,226.0
24.2133,-36.0,226.0
24.2184,123.0,226.0
24.2233,25.0,226.0
24.2284,-157.0,226.0
24.2332,-8.0,224.0
24.2383,206.0,224.0
24.2433,-2.0,224.0
24.2484,-241.0,224.0
24.2533,-22.0,226.0
24.2585,200.0,226.0
24.2633,62.0,228.0
24.2684,-71.0,228.0
24.2733,-55.0,228.0
24.2787,-60.0,230.0
24.2834,-9.0,230.0
24.2883,96.0,230.0
24.2933,64.0,230.0
24.2982,-38.0,228.0
24.3032,-49.0,228.0
24.3082,-22.0,226.0
24.3132,-26.0,226.0
24.3182,18.0,224.0
24.3234,101.0,224.0
24.3283,34.0,224.0
24.3332,-131.0,226.0
24.3382,-72.0,226.0
24.3432,123.0,228.0
24.3483,61.0,228.0
24.3534,-104.0,230.0
24.3582,-19.0,230.0
24.3633,84.0,230.0
24.3684,-18.0,228.0
24.3732,-62.0,228.0
24.3788,35.0,226.0
24.3834,37.0,224.0
24.3892,-37.0,222.0
24.3934,-16.0,220.0
24.3983,25.0,218.0
24.4034,1.0,216.0
24.4083,-2.0,216.0
24.4133,9.0,214.0
24.4185,-20.0,214.0
24.4233,-15.0,214.0
24.4283,27.0,214.0
24.4333,12.0,212.0
24.4383,-15.0,212.0
24.4433,7.0,210.0
24.4483,4.0,208.0
24.4532,-40.0,206.0
24.4584,-16.0,206.0
24.4633,63.0,204.0
24.4682,55.0,204.0
24.4733,-59.0,204.0
24.4783,-103.0,204.0
24.4832,31.0,202.0
24.4883,128.0,202.0
24.4934,0.0,198.0
24.4984,-104.0,194.0
24.5032,-12.0,194.0
24.5082,32.0,188.0
24.5133,-1.0,186.0
24.5183,54.0,184.0
24.5233,46.0,182.0
24.5284,-107.0,182.0
24.5333,-97.0,182.0
24.5383,93.0,182.0
24.5436,107.0,180.0
24.5484,-39.0,180.0
24.5534,-53.0,178.0
24.5584,8.0,178.0
24.5634,-18.0,178.0
24.5684,-15.0,178.0
24.5733,59.0,178.0
24.5792,16.0,178.0
24.5833,-80.0,178.0
24.5882,7.0,178.0
24.5932,102.0,178.0
24.5982,-17.0,178.0
24.6032,-104.0,178.0
24.6082,-3.0,178.0
24.6133,56.0,178.0
24.6182,25.0,178.0
24.6232,14.0,178.0
24.6284,-18.0,178.0
24.6334,-52.0,176.0
24.6384,6.0,174.0
24.6434,42.0,170.0
24.6482,-24.0,168.0
24.6532,-25.0,162.0
24.6582,49.0,158.0
24.6632,29.0,156.0
24.6682,-45.0,152.0
24.6732,-36.0,150.0
24.6784,20.0,148.0
24.6835,30.0,146.0
24.6883,-11.0,146.0
24.6932,-20.0,144.0
24.6982,29.0,144.0
24.7032,16.0,144.0
24.7083,-52.0,142.0
24.7134,-21.0,142.0
24.7182,70.0,140.0
24.7234,29.0,138.0
24.7283,-89.0,136.0
24.7332,-41.0,134.0
24.7382,93.0,132.0
24.7432,49.0,130.0
24.7482,-60.0,128.0
24.7534,-26.0,124.0
24.7585,4.0,120.0
24.7633,-23.0,116.0
24.7684,29.0,114.0
24.7732,64.0,112.0
24.7785,-25.0,110.0
24.7833,-66.0,112.0
24.7882,4.0,108.0
24.7932,36.0,106.0
24.7982,3.0,102.0
24.8032,-9.0,100.0
24.8083,0.0,96.0
24.8133,8.0,94.0
24.8182,20.0,94.0
24.8234,-1.0,92.0
24.8283,-61.0,94.0
24.8333,-45.0,92.0
24.8384,70.0,94.0
24.8433,101.0,94.0
24.8482,-12.0,92.0
24.8533,-97.0,94.0
24.8582,-63.0,92.0
24.8632,31.0,92.0
24.8683,85.0,92.0
24.8733,35.0,92.0
24.8782,-49.0,90.0
24.8833,-54.0,90.0
24.8883,2.0,86.0
24.8934,39.0,86.0
24.8983,30.0,84.0
24.9032,-13.0,84.0
24.9083,-58.0,84.0
24.9136,-24.0,82.0
24.9183,74.0,82.0
24.9232,67.0,84.0
24.9282,-55.0,84.0
24.9332,-82.0,84.0
24.9382,18.0,84.0
24.9432,48.0,84.0
24.9483,-6.0,82.0
24.9533,8.0,82.0
24.9582,35.0,82.0
24.9634,-38.0,82.0
24.9687,-71.0,82.0
24.9734,27.0,80.0
24.9782,78.0,80.0
24.9833,-1.0,80.0
24.9884,-54.0,78.0
24.9933,-10.0,78.0
24.9985,14.0,78.0
25.0032,3.0,76.0
25.0083,23.0,76.0
25.0132,15.0,76.0
25.0182,-42.0,76.0
25.0232,-28.0,76.0
25.0284,41.0,76.0
25.0334,15.0,76.0
25.0385,-40.0,76.0
25.0432,22.0,76.0
25.0483,57.0,76.0
25.0532,-48.0,78.0
25.0583,-81.0,78.0
25.0633,35.0,78.0
25.0683,83.0,80.0
25.0733,5.0,80.0
25.0782,-54.0,80.0
25.0833,-29.0,80.0
25.0886,20.0,80.0
25.0934,17.0,80.0
25.0983,-12.0,80.0
25.1033,9.0,80.0
25.1084,28.0,80.0
25.1135,-20.0,78.0
25.1182,-40.0,78.0
25.1232,8.0,78.0
25.1283,32.0,76.0
25.1333,9.0,76.0
25.1382,-5.0,74.0
25.1432,-17.0,74.0
25.1482,-20.0,74.0
25.1533,19.0,74.0
25.1584,34.0,74.0
25.1632,-25.0,74.0
25.1684,-50.0,72.0
25.1733,18.0,72.0
25.1782,71.0,72.0
25.1832,21.0,70.0
25.1893,-70.0,70.0
25.1936,-77.0,70.0
25.1984,35.0,72.0
25.2032,109.0,72.0
25.2083,5.0,72.0
25.2134,-103.0,74.0
25.2183,-25.0,74.0
25.2232,68.0,74.0
25.2286,17.0,74.0
25.2333,-31.0,72.0
25.2383,-1.0,72.0
25.2433,15.0,70.0
25.2482,4.0,70.0
25.2532,-17.0,70.0
25.2582,-13.0,70.0
25.2633,32.0,70.0
25.2683,0.0,70.0
25.2732,-71.0,70.0
25.2783,19.0,70.0
25.2833,129.0,72.0
25.2882,-6.0,72.0
25.294,-159.0,74.0
25.2984,-47.0,74.0
25.3034,111.0,74.0
25.3083,111.0,76.0
25.3133,13.0,76.0
25.3184,-138.0,78.0
25.3233,-155.0,80.0
25.3284,95.0,80.0
25.3332,224.0,84.0
25.3382,-10.0,84.0
25.3433,-182.0,86.0
25.3482,-43.0,86.0
25.3533,88.0,86.0
25.3583,34.0,86.0
25.3632,-30.0,86.0
25.3683,-6.0,86.0
25.3732,30.0,84.0
25.3782,0.0,84.0
25.3833,-44.0,84.0
25.3882,-6.0,82.0
25.3932,41.0,82.0
25.3982,5.0,82.0
25.4032,-26.0,82.0
25.4091,-6.0,82.0
25.4133,11.0,82.0
25.4182,27.0,82.0
25.4232,7.0,80.0
25.4289,-48.0,82.0
25.4333,-33.0,82.0
25.4382,41.0,82.0
25.4432,47.0,82.0
25.4482,-11.0,82.0
25.4532,-34.0,84.0
25.4582,-7.0,82.0
25.4632,7.0,82.0
25.4684,6.0,82.0
25.4734,17.0,82.0
25.4782,3.0,80.0
25.4833,-32.0,80.0
25.4884,-16.0,80.0
25.4934,30.0,78.0
25.4982,34.0,78.0
25.5032,-16.0,78.0
25.5082,-52.0,78.0
25.5134,9.0,76.0
25.5182,65.0,78.0
25.5232,-14.0,76.0
25.529,-69.0,78.0
25.5333,20.0,78.0
25.5384,54.0,78.0
25.5434,-21.0,78.0
25.5488,-24.0,78.0
25.5534,12.0,78.0
25.5584,-2.0,76.0
25.5638,6.0,76.0
25.5684,20.0,74.0
25.5744,-22.0,74.0
25.5784,-25.0,74.0
25.5834,28.0,74.0
25.5883,23.0,74.0
25.5933,-25.0,74.0
25.5985,-23.0,74.0
25.6033,16.0,74.0
25.6083,19.0,72.0
25.6135,-11.0,72.0
25.6182,-2.0,72.0
25.6233,23.0,72.0
25.6284,-15.0,70.0
25.6333,-49.0,72.0
25.6383,15.0,72.0
25.6433,63.0,72.0
25.6483,-2.0,72.0
25.6533,-43.0,72.0
25.6583,-2.0,72.0
25.6632,-7.0,72.0
25.6682,-6.0,72.0
25.6733,59.0,72.0
25.6783,15.0,72.0
25.6834,-84.0,72.0
25.6883,-22.0,72.0
25.6934,79.0,72.0
25.6983,31.0,72.0
25.7033,-63.0,72.0
25.7083,-40.0,72.0
25.7134,52.0,72.0
25.7182,39.0,72.0
25.7234,-53.0,72.0
25.7284,-23.0,72.0
25.7333,63.0,72.0
25.7383,11.0,72.0
25.7433,-65.0,74.0
25.7483,-6.0,74.0
25.7534,53.0,74.0
25.7583,-1.0,74.0
25.7633,-30.0,74.0
25.7682,14.0,74.0
25.7732,-9.0,74.0
25.7784,-19.0,74.0
25.7833,63.0,74.0
25.7883,24.0,74.0
25.7934,-87.0,76.0
25.7984,-34.0,76.0
25.8034,48.0,76.0
25.8085,18.0,76.0
25.8134,11.0,76.0
25.8182,39.0,74.0
25.8233,-13.0,74.0
25.8286,-84.0,74.0
25.8333,-39.0,74.0
25.8383,69.0,74.0
25.8433,70.0,74.0
25.8484,-12.0,74.0
25.8533,-17.0,72.0
25.8583,-38.0,74.0
25.8635,-106.0,74.0
25.8683,52.0,74.0
25.8733,228.0,78.0
25.8782,-38.0,78.0
25.8834,-267.0,82.0
25.8884,53.0,82.0
25.8933,204.0,86.0
25.8984,-152.0,88.0
25.9033,-107.0,88.0
25.9095,287.0,94.0
25.9136,59.0,94.0
25.9183,-335.0,98.0
25.9236,-41.0,96.0
25.9283,260.0,100.0
25.9333,-17.0,98.0
25.9384,-159.0,100.0
25.9434,97.0,100.0
25.9484,101.0,100.0
25.9533,-116.0,102.0
25.9583,-46.0,100.0
25.9633,47.0,98.0
25.9683,-65.0,98.0
25.9734,31.0,94.0
25.9784,186.0,98.0
25.9834,-30.0,96.0
25.9885,-196.0,98.0
25.9933,-19.0,96.0
25.9985,74.0,98.0
26.0034,12.0,96.0
26.0099,64.0,98.0
26.0134,69.0,98.0
26.0184,-121.0,100.0
26.024,-144.0,102.0
26.0284,106.0,104.0
26.0334,153.0,106.0
26.0385,-75.0,106.0
26.0433,-107.0,108.0
26.0483,57.0,108.0
26.0534,54.0,108.0
26.0586,-44.0,110.0
26.0639,-32.0,110.0
26.0693,23.0,110.0
26.0734,49.0,110.0
26.0785,9.0,108.0
26.0835,-73.0,110.0
26.0885,-43.0,110.0
26.0933,63.0,110.0
26.0983,47.0,110.0
26.1034,-18.0,112.0
26.1084,10.0,112.0
26.114,0.0,110.0
26.1184,-114.0,112.0
26.1234,-60.0,114.0
26.1284,179.0,116.0
26.1333,144.0,118.0
26.1384,-156.0,120.0
26.1434,-169.0,122.0
26.1484,103.0,122.0
26.1534,158.0,124.0
26.1615,-80.0,126.0
26.1633,-162.0,128.0
26.1683,65.0,128.0
26.1736,163.0,130.0
26.1784,-40.0,130.0
26.1834,-130.0,132.0
26.1883,34.0,132.0
26.1933,85.0,132.0
26.1985,-53.0,134.0
26.2033,-57.0,134.0
26.2083,57.0,134.0
26.2133,51.0,134.0
26.2184,-19.0,134.0
26.2233,-53.0,136.0
26.2285,-31.0,136.0
26.2332,38.0,136.0
26.2383,35.0,136.0
26.2433,-14.0,136.0
26.2484,18.0,136.0
26.2532,13.0,136.0
26.2582,-67.0,136.0
26.2633,-36.0,136.0
26.2682,55.0,138.0
26.2732,48.0,138.0
26.2783,-4.0,138.0
26.2833,-31.0,136.0
26.2882,-35.0,138.0
26.2933,-3.0,136.0
26.2983,40.0,138.0
26.3032,37.0,138.0
26.3083,-27.0,138.0
26.3134,-62.0,138.0
26.3182,20.0,138.0
26.3232,84.0,138.0
26.3282,-20.0,138.0
26.3338,-92.0,138.0
26.3382,19.0,138.0
26.3442,71.0,138.0
26.349,-34.0,138.0
26.3544,-48.0,138.0
26.3588,75.0,138.0
26.3633,79.0,140.0
26.3683,-82.0,140.0
26.3735,-135.0,142.0
26.3782,15.0,142.0
26.3833,133.0,142.0
26.3883,61.0,144.0
26.3933,-74.0,144.0
26.3983,-73.0,144.0
26.4033,35.0,144.0
26.4083,35.0,146.0
26.4133,-51.0,146.0
26.4183,-12.0,146.0
26.4242,76.0,146.0
26.4289,27.0,146.0
26.4336,-57.0,146.0
26.4384,-45.0,146.0
26.4433,-2.0,144.0
26.4483,27.0,146.0
26.4533,55.0,146.0
26.4584,23.0,146.0
26.4632,-61.0,146.0
26.4683,-75.0,146.0
26.4734,15.0,146.0
26.4784,90.0,146.0
26.4832,49.0,146.0
26.4883,-64.0,146.0
26.4933,-88.0,148.0
26.4983,27.0,148.0
26.5033,87.0,148.0
26.5083,-8.0,146.0
26.5134,-67.0,144.0
26.5183,6.0,144.0
26.5234,45.0,140.0
26.5283,-1.0,140.0
26.5332,-1.0,136.0
26.5382,-9.0,134.0
26.5433,-75.0,134.0
26.5483,0.0,128.0
26.5533,127.0,130.0
26.5584,41.0,126.0
26.5632,-86.0,126.0
26.5682,-83.0,124.0
26.5732,-25.0,124.0
26.5782,77.0,122.0
26.5834,117.0,122.0
26.5884,-30.0,122.0
26.5934,-123.0,122.0
26.5983,-4.0,120.0
26.6033,65.0,120.0
26.6082,-5.0,120.0
26.6133,-12.0,120.0
26.6182,19.0,118.0
26.6234,1.0,116.0
26.6284,15.0,114.0
26.6335,-10.0,114.0
26.6386,-90.0,114.0
26.6444,-11.0,114.0
26.6483,124.0,114.0
26.6534,74.0,114.0
26.6586,-63.0,114.0
26.6633,-110.0,114.0
26.6685,-38.0,112.0
26.6733,67.0,112.0
26.6783,73.0,112.0
26.6835,-1.0,110.0
26.6888,-26.0,108.0
26.6938,-16.0,108.0
26.6983,-20.0,108.0
26.7033,9.0,108.0
26.7083,16.0,108.0
26.7137,-33.0,108.0
26.7187,15.0,108.0
26.7237,84.0,108.0
26.7289,-38.0,108.0
26.7334,-112.0,108.0
26.7385,49.0,108.0
26.7442,98.0,110.0
26.7486,-54.0,110.0
26.7536,-58.0,112.0
26.7586,59.0,110.0
26.7634,5.0,110.0
26.7684,-77.0,108.0
26.7734,50.0,106.0
26.7787,115.0,106.0
26.7836,-77.0,104.0
26.7886,-157.0,106.0
26.7932,42.0,104.0
26.7988,153.0,104.0
26.8037,22.0,102.0
26.8085,-77.0,102.0
26.8133,-39.0,100.0
26.8183,-23.0,100.0
26.8233,-14.0,98.0
26.8304,64.0,98.0
26.8334,80.0,98.0
26.8385,-24.0,98.0
26.8437,-83.0,98.0
26.8483,-24.0,98.0
26.8534,28.0,98.0
26.859,9.0,98.0
26.8637,0.0,96.0
26.8691,47.0,98.0
26.8732,47.0,98.0
26.8784,-56.0,98.0
26.8832,-111.0,100.0
26.8885,-7.0,98.0
26.8938,110.0,100.0
26.8987,70.0,100.0
26.9034,-53.0,100.0
26.9085,-62.0,100.0
26.914,18.0,100.0
26.9189,4.0,100.0
26.924,-42.0,100.0
26.9296,35.0,100.0
26.9334,81.0,102.0
26.9385,-25.0,102.0
26.9432,-77.0,102.0
26.9483,-1.0,102.0
26.9539,34.0,102.0
26.9584,1.0,102.0
26.9634,-2.0,100.0
26.9686,18.0,100.0
26.9733,12.0,98.0
26.9789,-13.0,98.0
26.9834,-33.0,98.0
26.9883,-26.0,98.0
26.9932,20.0,98.0
26.9983,66.0,98.0
27.0034,23.0,96.0
27.0083,-71.0,96.0
27.0133,-53.0,94.0
27.0182,52.0,96.0
27.0232,43.0,94.0
27.0285,-34.0,94.0
27.0337,-14.0,92.0
27.0387,26.0,92.0
27.0435,-4.0,92.0
27.0483,-17.0,92.0
27.0534,17.0,90.0
27.0591,-2.0,90.0
27.0639,-37.0,90.0
27.069,16.0,90.0
27.0734,61.0,90.0
27.0783,-6.0,90.0
27.0836,-67.0,90.0
27.0885,-16.0,90.0
27.0938,51.0,90.0
27.0986,24.0,90.0
27.1035,-40.0,90.0
27.1083,-24.0,88.0
27.1134,43.0,90.0
27.1187,33.0,88.0
27.1232,-33.0,88.0
27.1294,-32.0,88.0
27.1334,-1.0,86.0
27.1392,-6.0,86.0
27.1434,36.0,86.0
27.1487,68.0,86.0
27.1538,-33.0,86.0
27.1591,-99.0,86.0
27.1634,-6.0,86.0
27.1684,67.0,88.0
27.1732,36.0,88.0
27.1781,1.0,88.0
27.1832,-30.0,88.0
27.1883,-52.0,88.0
27.1934,6.0,86.0
27.1989,57.0,86.0
27.2033,6.0,84.0
27.2083,-37.0,84.0
27.2134,-3.0,84.0
27.2189,20.0,84.0
27.2233,-6.0,82.0
27.2285,-12.0,80.0
27.2334,13.0,80.0
27.239,0.0,80.0
27.2433,-13.0,78.0
27.2484,18.0,78.0
27.2534,8.0,78.0
27.2591,-30.0,78.0
27.2634,0.0,78.0
27.2684,23.0,78.0
27.2737,-8.0,78.0
27.2784,1.0,78.0
27.2836,16.0,78.0
27.2889,-32.0,76.0
27.2932,-30.0,76.0
27.2987,56.0,76.0
27.3034,61.0,74.0
27.3084,-56.0,74.0
27.314,-85.0,76.0
27.3189,30.0,74.0
27.3238,66.0,76.0
27.3285,-7.0,76.0
27.3333,-18.0,76.0
27.3384,14.0,76.0
27.3435,-11.0,76.0
27.3484,-36.0,76.0
27.3532,0.0,74.0
27.3592,35.0,76.0
27.3634,17.0,74.0
27.3684,-14.0,74.0
27.375,-15.0,72.0
27.3782,0.0,72.0
27.3832,5.0,70.0
27.3882,8.0,70.0
27.3932,0.0,68.0
27.3984,-24.0,68.0
27.4034,-17.0,68.0
27.4083,38.0,68.0
27.4133,51.0,68.0
27.4184,-27.0,66.0
27.4234,-83.0,66.0
27.4286,-12.0,64.0
27.4334,87.0,64.0
27.4383,54.0,64.0
27.4433,-57.0,64.0
27.4483,-61.0,64.0
27.4544,16.0,62.0
27.4584,31.0,64.0
27.4633,4.0,62.0
27.4683,6.0,62.0
27.4738,-3.0,60.0
27.4784,-26.0,60.0
27.4834,6.0,60.0
27.4883,39.0,60.0
27.4933,-23.0,60.0
27.4984,-60.0,60.0
27.5032,33.0,62.0
27.5083,78.0,62.0
27.5133,-16.0,62.0
27.5183,-65.0,62.0
27.5243,-18.0,60.0
27.5282,23.0,60.0
27.5332,35.0,58.0
27.5383,19.0,58.0
27.5445,-18.0,58.0
27.5483,-29.0,58.0
27.5532,-5.0,56.0
27.5582,4.0,56.0
27.5633,2.0,56.0
27.5683,27.0,56.0
27.5732,25.0,56.0
27.5783,-25.0,56.0
27.5834,-42.0,54.0
27.5882,-3.0,54.0
27.5934,21.0,54.0
27.5984,21.0,54.0
27.6034,12.0,54.0
27.6082,-9.0,54.0
27.6132,-13.0,54.0
27.6188,-1.0,54.0
27.6233,-23.0,54.0
27.6285,-19.0,54.0
27.6332,54.0,54.0
27.6383,53.0,54.0
27.6433,-47.0,56.0
27.6486,-46.0,54.0
27.6533,20.0,54.0
27.6583,-5.0,54.0
27.6634,-3.0,52.0
27.6684,50.0,54.0
27.6733,-8.0,52.0
27.6784,-51.0,54.0
27.6832,31.0,54.0
27.6882,23.0,54.0
27.6934,-61.0,54.0
27.6983,-7.0,54.0
27.7032,76.0,56.0
27.7082,24.0,56.0
27.7134,-51.0,56.0
27.7183,-52.0,56.0
27.7233,-8.0,56.0
27.7282,56.0,56.0
27.7333,52.0,56.0
27.7383,-34.0,56.0
27.7435,-43.0,56.0
27.749,19.0,56.0
27.7533,5.0,56.0
27.7584,-25.0,56.0
27.7633,16.0,54.0
27.7683,29.0,54.0
27.7733,-18.0,56.0
27.7782,-18.0,56.0
27.7832,28.0,56.0
27.7884,10.0,54.0
27.7933,-45.0,54.0
27.7982,-9.0,52.0
27.805,52.0,54.0
27.8082,2.0,52.0
27.8131,-51.0,52.0
27.8182,8.0,54.0
27.8232,49.0,54.0
27.8285,-11.0,52.0
27.8332,-46.0,54.0
27.8384,7.0,52.0
27.8432,40.0,54.0
27.8483,-8.0,52.0
27.8539,-36.0,54.0
27.8582,13.0,52.0
27.8633,32.0,54.0
27.8682,-8.0,54.0
27.8732,-18.0,54.0
27.8782,-6.0,54.0
27.8833,-9.0,54.0
27.8882,13.0,54.0
27.8932,30.0,54.0
27.8983,-4.0,54.0
27.9033,-27.0,54.0
27.9082,-11.0,54.0
27.9132,1.0,54.0
27.9182,26.0,54.0
27.9232,35.0,54.0
27.9283,-42.0,54.0
27.9332,-78.0,56.0
27.9383,53.0,54.0
27.9434,114.0,56.0
27.9484,-42.0,56.0
27.9541,-113.0,56.0
27.9589,6.0,56.0
27.9633,57.0,56.0
27.9683,25.0,56.0
27.9733,27.0,56.0
27.9782,-26.0,56.0
27.9832,-80.0,58.0
27.9881,10.0,56.0
27.9933,75.0,58.0
27.9982,-12.0,58.0
28.0033,-45.0,58.0
28.0082,33.0,58.0
28.0132,36.0,58.0
28.0186,-36.0,60.0
28.0233,-41.0,60.0
28.0284,7.0,60.0
28.0333,25.0,60.0
28.0382,14.0,60.0
28.0432,0.0,60.0
28.0482,-13.0,60.0
28.0531,7.0,58.0
28.0581,26.0,58.0
28.0632,-50.0,58.0
28.0682,-65.0,58.0
28.0732,78.0,58.0
28.0782,86.0,60.0
28.0834,-72.0,60.0
28.0882,-60.0,60.0
28.0933,55.0,60.0
28.0983,9.0,60.0
28.1034,-41.0,60.0
28.1084,28.0,60.0
28.1135,21.0,62.0
28.1187,-41.0,62.0
28.1234,7.0,62.0
28.1284,37.0,62.0
28.1334,-26.0,62.0
28.1383,-16.0,60.0
28.1433,22.0,60.0
28.1484,-15.0,60.0
28.1534,-9.0,60.0
28.1625,37.0,58.0
28.1633,1.0,58.0
28.1683,-34.0,58.0
28.1734,-8.0,58.0
28.1784,8.0,58.0
28.1832,35.0,58.0
28.1888,33.0,58.0
28.1932,-75.0,60.0
28.1983,-79.0,60.0
28.2032,95.0,62.0
28.2084,88.0,64.0
28.2132,-75.0,64.0
28.2183,-25.0,64.0
28.2232,47.0,64.0
28.2283,-81.0,66.0
28.2332,-44.0,66.0
28.2382,160.0,68.0
28.2433,49.0,68.0
28.2482,-169.0,70.0
28.2536,-30.0,72.0
28.2583,120.0,74.0
28.2645,-13.0,72.0
28.2682,-49.0,74.0
28.2733,58.0,74.0
28.2783,-15.0,72.0
28.2833,-73.0,74.0
28.2882,68.0,74.0
28.2932,41.0,74.0
28.2983,-119.0,76.0
28.3032,21.0,76.0
28.3082,162.0,78.0
28.3133,-80.0,78.0
28.3182,-184.0,80.0
28.3233,110.0,82.0
28.3282,190.0,84.0
28.3332,-100.0,86.0
28.3383,-200.0,88.0
28.3432,44.0,88.0
28.3482,204.0,90.0
28.3532,38.0,90.0
28.3583,-162.0,92.0
28.3632,-99.0,94.0
28.3682,72.0,94.0
28.3733,109.0,94.0
28.3784,9.0,94.0
28.3832,-88.0,96.0
28.3882,-40.0,96.0
28.3935,60.0,96.0
28.3984,29.0,96.0
28.4033,-24.0,96.0
28.4082,-3.0,96.0
28.4132,-16.0,96.0
28.4182,-24.0,96.0
28.4232,47.0,96.0
28.4283,47.0,96.0
28.4332,-56.0,98.0
28.4383,-54.0,98.0
28.4433,45.0,98.0
28.4482,40.0,98.0
28.4532,-29.0,98.0
28.4582,-13.0,98.0
28.4632,16.0,98.0
28.4688,-16.0,98.0
28.4732,1.0,96.0
28.4782,49.0,98.0
28.4834,-22.0,98.0
28.4882,-75.0,98.0
28.4933,26.0,98.0
28.4982,65.0,98.0
28.5032,-18.0,98.0
28.5082,-13.0,98.0
28.5133,28.0,100.0
28.5183,-35.0,100.0
28.5232,-46.0,100.0
28.5282,43.0,100.0
28.5332,31.0,100.0
28.5382,-9.0,100.0
28.5432,23.0,100.0
28.5483,-36.0,100.0
28.5533,-69.0,102.0
28.5582,79.0,102.0
28.5632,62.0,104.0
28.5687,-118.0,104.0
28.574,-35.0,104.0
28.5782,132.0,104.0
28.5833,20.0,104.0
28.5882,-91.0,104.0
28.5933,4.0,102.0
28.5982,17.0,102.0
28.6032,-54.0,102.0
28.6082,28.0,102.0
28.6134,91.0,104.0
28.6182,-25.0,104.0
28.6234,-76.0,104.0
28.6282,8.0,104.0
28.6332,20.0,102.0
28.6382,-18.0,102.0
28.6433,21.0,102.0
28.6482,50.0,102.0
28.6533,-19.0,102.0
28.6582,-59.0,102.0
28.6633,-1.0,102.0
28.6682,31.0,102.0
28.6734,2.0,102.0
28.6782,6.0,102.0
28.6832,20.0,102.0
28.6883,-23.0,102.0
28.6932,-40.0,104.0
28.6984,17.0,102.0
28.7036,39.0,102.0
28.7082,-9.0,102.0
28.7135,-26.0,102.0
28.7183,9.0,100.0
28.7235,13.0,98.0
28.7283,-12.0,98.0
28.7332,-2.0,98.0
28.7384,15.0,98.0
28.7435,-8.0,96.0
28.7483,-25.0,96.0
28.7533,14.0,96.0
28.7582,38.0,96.0
28.7633,-12.0,96.0
28.7683,-45.0,96.0
28.7733,5.0,96.0
28.7783,44.0,98.0
28.7832,1.0,96.0
28.7883,-41.0,98.0
28.7932,-10.0,98.0
28.7983,34.0,98.0
28.8033,19.0,98.0
28.8083,-21.0,98.0
28.8132,-18.0,98.0
28.8182,9.0,98.0
28.8232,13.0,98.0
28.8285,-2.0,96.0
28.8332,-11.0,96.0
28.8382,-6.0,94.0
28.8432,12.0,94.0
28.8482,34.0,92.0
28.8532,1.0,92.0
28.8582,-69.0,92.0
28.8634,-37.0,92.0
28.8682,72.0,92.0
28.8733,69.0,92.0
28.8782,-33.0,90.0
28.8832,-68.0,90.0
28.8882,-8.0,88.0
28.8932,42.0,88.0
28.8983,25.0,86.0
28.9033,-21.0,86.0
28.9082,-29.0,86.0
28.9132,6.0,86.0
28.9182,29.0,86.0
28.9233,7.0,84.0
28.9282,-20.0,84.0
28.9332,-16.0,84.0
28.9382,5.0,82.0
28.9432,12.0,82.0
28.9482,0.0,80.0
28.9532,-3.0,78.0
28.9581,6.0,76.0
28.9632,-4.0,74.0
28.9682,-19.0,70.0
28.9732,16.0,70.0
28.9783,46.0,66.0
28.9832,-18.0,66.0
28.9882,-80.0,64.0
28.9932,-5.0,64.0
28.9982,92.0,64.0
29.0032,42.0,62.0
29.0083,-60.0,62.0
29.0132,-53.0,62.0
29.0181,9.0,62.0
29.0232,20.0,60.0
29.0284,19.0,60.0
29.0333,25.0,60.0
29.0382,-16.0,58.0
29.0433,-46.0,60.0
29.0481,1.0,60.0
29.0532,35.0,60.0
29.0583,4.0,60.0
29.0635,-13.0,58.0
29.0683,-4.0,58.0
29.0732,-6.0,58.0
29.0782,8.0,56.0
29.0832,26.0,56.0
29.0882,-10.0,56.0
29.0932,-47.0,56.0
29.0982,-3.0,56.0
29.1032,49.0,56.0
29.1082,25.0,56.0
29.1135,-9.0,56.0
29.1182,-20.0,56.0
29.1233,-47.0,56.0
29.1282,-20.0,56.0
29.1332,59.0,56.0
29.1382,43.0,56.0
29.1433,-21.0,56.0
29.1483,-5.0,56.0
29.1531,4.0,56.0
29.1582,-55.0,56.0
29.1633,-39.0,56.0
29.1683,68.0,56.0
29.1732,78.0,56.0
29.1782,-31.0,58.0
29.1832,-72.0,58.0
29.1882,6.0,58.0
29.1932,41.0,56.0
29.1982,-19.0,56.0
29.2032,-33.0,56.0
29.2082,32.0,54.0
29.2132,39.0,54.0
29.2182,-11.0,52.0
29.2235,-15.0,52.0
29.2283,-15.0,52.0
29.2334,-33.0,52.0
29.2382,13.0,52.0
29.2432,53.0,52.0
29.2482,-8.0,52.0
29.2532,-35.0,50.0
29.2582,38.0,50.0
29.2633,30.0,50.0
29.2684,-72.0,50.0
29.2732,-42.0,52.0
29.2782,67.0,52.0
29.2833,32.0,52.0
29.2882,-44.0,52.0
29.2932,-1.0,52.0
29.2984,32.0,52.0
29.3033,-24.0,52.0
29.3083,-25.0,52.0
29.3132,71.0,52.0
29.3182,21.0,52.0
29.3232,-159.0,56.0
29.3284,-50.0,56.0
29.3332,221.0,58.0
29.3382,106.0,60.0
29.3433,-189.0,62.0
29.3482,-129.0,64.0
29.3532,101.0,66.0
29.3582,92.0,66.0
29.3632,-41.0,66.0
29.3682,-42.0,68.0
29.3733,19.0,68.0
29.3782,18.0,68.0
29.3832,-5.0,68.0
29.3882,-9.0,68.0
29.3932,0.0,68.0
29.3982,-3.0,66.0
29.4034,-18.0,66.0
29.4081,3.0,66.0
29.4146,41.0,66.0
29.4182,16.0,66.0
29.4233,-35.0,66.0
29.4285,-32.0,66.0
29.4332,0.0,66.0
29.4382,23.0,66.0
29.4432,32.0,66.0
29.4481,8.0,66.0
29.4532,-33.0,66.0
29.4582,-43.0,66.0
29.4631,-2.0,66.0
29.4684,52.0,68.0
29.4732,46.0,68.0
29.4782,-11.0,68.0
29.4834,-49.0,68.0
29.4882,-53.0,70.0
29.4933,4.0,70.0
29.4987,81.0,70.0
29.5032,33.0,70.0
29.5082,-64.0,70.0
29.5133,-30.0,68.0
29.5182,41.0,68.0
29.5232,9.0,68.0
29.5282,-34.0,68.0
29.5332,-6.0,68.0
29.5382,26.0,68.0
29.5433,17.0,68.0
29.5482,-3.0,68.0
29.5533,-20.0,68.0
29.5582,-21.0,68.0
29.5631,2.0,68.0
29.5681,25.0,68.0
29.5738,21.0,68.0
29.5784,-2.0,68.0
29.5832,-29.0,68.0
29.5883,-30.0,68.0
29.5931,8.0,68.0
29.5982,49.0,68.0
29.6032,34.0,70.0
29.6082,-42.0,70.0
29.6132,-70.0,70.0
29.6182,14.0,70.0
29.6232,69.0,70.0
29.6286,5.0,70.0
29.6332,-33.0,70.0
29.6383,1.0,68.0
29.6432,4.0,68.0
29.6482,-17.0,68.0
29.6532,-7.0,66.0
29.6582,12.0,66.0
29.6632,20.0,66.0
29.6682,5.0,66.0
29.6732,-18.0,66.0
29.6782,-12.0,66.0
29.6834,2.0,66.0
29.6882,3.0,66.0
29.6932,7.0,66.0
29.6982,2.0,66.0
29.7033,-3.0,64.0
29.7082,5.0,64.0
29.7139,-1.0,64.0
29.7184,-20.0,66.0
29.7234,-3.0,64.0
29.7282,33.0,66.0
29.7332,11.0,64.0
29.7382,-46.0,66.0
29.7433,-20.0,64.0
29.7484,54.0,66.0
29.7532,27.0,66.0
29.7582,-51.0,66.0
29.7632,-32.0,66.0
29.7685,34.0,66.0
29.7733,28.0,66.0
29.7782,-10.0,64.0
29.7832,-9.0,64.0
29.7882,-8.0,64.0
29.7932,-12.0,64.0
29.7982,18.0,64.0
29.8041,17.0,64.0
29.8082,-31.0,64.0
29.8132,-9.0,62.0
29.8182,56.0,62.0
29.8232,8.0,62.0
29.8284,-74.0,62.0
29.8331,-20.0,62.0
29.8382,61.0,64.0
29.8433,22.0,62.0
29.8482,-26.0,62.0
29.8533,-1.0,62.0
29.8582,2.0,62.0
29.8632,-20.0,62.0
29.8681,5.0,62.0
29.8732,20.0,62.0
29.8782,-10.0,62.0
29.8832,-2.0,60.0
29.8882,18.0,62.0
29.8933,-16.0,60.0
29.8987,-13.0,60.0
29.9031,30.0,60.0
29.9082,-6.0,60.0
29.9134,-46.0,60.0
29.9182,22.0,58.0
29.9234,59.0,60.0
29.9283,-20.0,58.0
29.9332,-57.0,60.0
29.9383,17.0,60.0
29.9434,46.0,60.0
29.9482,-19.0,60.0
29.9534,-51.0,60.0
29.9582,2.0,60.0
29.9631,64.0,58.0
29.9683,41.0,58.0
29.9732,-42.0,54.0
29.9783,-75.0,54.0
29.9834,-17.0,52.0
29.9882,64.0,50.0
29.9932,67.0,50.0
29.9982,-18.0,48.0
30.0033,-65.0,50.0
30.0082,-20.0,48.0
30.0131,19.0,48.0
30.0182,21.0,48.0
30.0231,28.0,50.0
30.0283,6.0,50.0
30.0332,-40.0,50.0
30.0382,-29.0,50.0
30.0432,18.0,50.0
30.0481,29.0,50.0
30.0532,10.0,50.0
30.0585,-21.0,50.0
30.0632,-29.0,50.0
30.0682,23.0,50.0
30.0732,45.0,50.0
30.0782,-25.0,50.0
30.0834,-53.0,52.0
30.0883,15.0,52.0
30.0933,32.0,52.0
30.0982,-10.0,50.0
30.1035,8.0,50.0
30.1085,28.0,50.0
30.1132,-29.0,50.0
30.1182,-45.0,50.0
30.1233,18.0,50.0
30.1283,39.0,50.0
30.1331,-6.0,50.0
30.1383,-22.0,48.0
30.1433,13.0,48.0
30.1484,13.0,48.0
30.1532,-29.0,48.0
30.1582,-12.0,48.0
30.164,36.0,48.0
30.1685,13.0,48.0
30.1734,-31.0,48.0
30.1781,-18.0,48.0
30.1833,27.0,48.0
30.1882,28.0,48.0
30.1932,-30.0,48.0
30.1982,-42.0,48.0
30.2031,27.0,50.0
30.2082,42.0,50.0
30.2133,-13.0,50.0
30.2182,-20.0,50.0
30.2232,4.0,50.0
30.2287,-1.0,48.0
30.2333,-13.0,48.0
30.2382,-11.0,48.0
30.2431,25.0,48.0
30.2482,52.0,48.0
30.2532,-9.0,48.0
30.2583,-73.0,48.0
30.2633,-28.0,48.0
30.2683,42.0,48.0
30.2731,46.0,48.0
30.2781,10.0,48.0
30.2831,-26.0,48.0
30.2881,-40.0,50.0
30.2932,-20.0,50.0
30.2982,29.0,50.0
30.3033,71.0,50.0
30.3088,8.0,50.0
30.3134,-93.0,52.0
30.3183,-39.0,52.0
30.3232,74.0,54.0
30.3289,39.0,54.0
30.3341,-42.0,54.0
30.3381,-20.0,54.0
30.3435,28.0,56.0
30.3483,10.0,56.0
30.3534,-27.0,56.0
30.3583,-20.0,56.0
30.3634,18.0,56.0
30.3682,35.0,56.0
30.3731,8.0,56.0
30.3782,-33.0,56.0
30.3834,-35.0,56.0
30.3881,10.0,56.0
30.3932,37.0,56.0
30.3981,6.0,54.0
30.4031,-16.0,54.0
30.4081,3.0,54.0
30.4131,-3.0,54.0
30.4181,-30.0,54.0
30.4232,14.0,54.0
30.4283,56.0,54.0
30.4332,-18.0,54.0
30.4382,-69.0,56.0
